0,000000	-0,128186
0,000500	-0,144132
0,001000	-0,146598
0,001500	-0,139200
0,002000	-0,127857
0,002500	-0,096129
0,003000	-0,045167
0,003500	0,005466
0,004000	0,034563
0,004500	0,058729
0,005000	0,075168
0,005500	0,076976
0,006000	0,069743
0,006500	0,072867
0,007000	0,082237
0,007500	0,069414
0,008000	0,059058
0,008500	0,075332
0,009000	0,100978
0,009500	0,106567
0,010000	0,084867
0,010500	0,070894
0,011000	0,062510
0,011500	0,029303
0,012000	-0,013933
0,012500	-0,042866
0,013000	-0,067854
0,013500	-0,076073
0,014000	-0,077553
0,014500	-0,071963
0,015000	-0,040236
0,015500	0,014343
0,016000	0,049523
0,016500	0,069579
0,017000	0,088155
0,017500	0,078949
0,018000	0,026343
0,018500	-0,046811
0,019000	-0,127364
0,019500	-0,190326
0,020000	-0,217286
0,020500	-0,209889
0,021000	-0,161557
0,021500	-0,104020
0,022000	-0,068840
0,022500	-0,050592
0,023000	-0,024125
0,023500	0,002507
0,024000	-0,017221
0,024500	-0,070484
0,025000	-0,102047
0,025500	-0,117500
0,026000	-0,174051
0,026500	-0,246220
0,027000	-0,255590
0,027500	-0,193778
0,028000	-0,100074
0,028500	-0,024454
0,029000	0,027001
0,029500	0,026508
0,030000	-0,002261
0,030500	-0,027413
0,031000	-0,013275
0,031500	0,027659
0,032000	0,077305
0,032500	0,132541
0,033000	0,190901
0,033500	0,234300
0,034000	0,261589
0,034500	0,250411
0,035000	0,220984
0,035500	0,199285
0,036000	0,173310
0,036500	0,138130
0,037000	0,099169
0,037500	0,060044
0,038000	0,018781
0,038500	-0,022974
0,039000	-0,063908
0,039500	-0,082320
0,040000	-0,092841
0,040500	-0,105993
0,041000	-0,098759
0,041500	-0,070648
0,042000	-0,041715
0,042500	0,003493
0,043000	0,046728
0,043500	0,091279
0,044000	0,115937
0,044500	0,098019
0,045000	0,074346
0,045500	0,074346
0,046000	0,102457
0,046500	0,113307
0,047000	0,116759
0,047500	0,132048
0,048000	0,126294
0,048500	0,110512
0,049000	0,098676
0,049500	0,101307
0,050000	0,106567
0,050500	0,102786
0,051000	0,114294
0,051500	0,129418
0,052000	0,124650
0,052500	0,108540
0,053000	0,110512
0,053500	0,135665
0,054000	0,148158
0,054500	0,144377
0,055000	0,122349
0,055500	0,097690
0,056000	0,075661
0,056500	0,049687
0,057000	0,023878
0,057500	-0,003083
0,058000	-0,029386
0,058500	-0,052401
0,059000	-0,066703
0,059500	-0,060456
0,060000	-0,037441
0,060500	-0,024289
0,061000	-0,019522
0,061500	-0,011631
0,062000	0,000534
0,062500	0,015000
0,063000	0,004808
0,063500	-0,016892
0,064000	-0,022810
0,064500	0,002507
0,065000	0,054619
0,065500	0,081579
0,066000	0,089799
0,066500	0,108211
0,067000	0,141911
0,067500	0,149638
0,068000	0,116759
0,068500	0,076483
0,069000	0,060373
0,069500	0,060866
0,070000	0,063003
0,070500	0,057742
0,071000	0,043112
0,071500	0,020261
0,072000	-0,006699
0,072500	-0,025276
0,073000	-0,034811
0,073500	-0,051579
0,074000	-0,079854
0,074500	-0,109938
0,075000	-0,147255
0,075500	-0,174544
0,076000	-0,183586
0,076500	-0,155968
0,077000	-0,090540
0,077500	-0,007850
0,078000	0,060044
0,078500	0,090128
0,079000	0,107060
0,079500	0,106731
0,080000	0,091279
0,080500	0,075497
0,081000	0,068099
0,081500	0,051660
0,082000	0,025521
0,082500	0,011548
0,083000	0,000534
0,083500	-0,016563
0,084000	-0,024454
0,084500	-0,020837
0,085000	-0,003083
0,085500	0,011877
0,086000	0,022398
0,086500	0,010891
0,087000	-0,007028
0,087500	-0,004891
0,088000	-0,006371
0,088500	-0,032674
0,089000	-0,058648
0,089500	-0,052072
0,090000	-0,013604
0,090500	0,001849
0,091000	-0,005384
0,091500	0,001191
0,092000	0,019275
0,092500	0,031111
0,093000	0,041468
0,093500	0,048536
0,094000	0,017302
0,094500	-0,043195
0,095000	-0,083306
0,095500	-0,102869
0,096000	-0,141830
0,096500	-0,170435
0,097000	-0,170928
0,097500	-0,168955
0,098000	-0,174216
0,098500	-0,183257
0,099000	-0,205943
0,099500	-0,204793
0,100000	-0,193943
0,100500	-0,177832
0,101000	-0,161229
0,101500	-0,172243
0,102000	-0,186874
0,102500	-0,169613
0,103000	-0,140186
0,103500	-0,111582
0,104000	-0,068018
0,104500	-0,025769
0,105000	-0,015905
0,105500	-0,033824
0,106000	-0,018043
0,106500	0,040317
0,107000	0,082895
0,107500	0,120540
0,108000	0,177749
0,108500	0,242027
0,109000	0,305975
0,109500	0,367129
0,110000	0,434037
0,110500	0,454751
0,111000	0,415954
0,111500	0,354307
0,112000	0,285098
0,112500	0,219505
0,113000	0,173639
0,113500	0,154570
0,114000	0,156378
0,114500	0,146514
0,115000	0,138459
0,115500	0,126952
0,116000	0,116266
0,116500	0,115609
0,117000	0,117088
0,117500	0,111992
0,118000	0,100485
0,118500	0,092922
0,119000	0,092429
0,119500	0,109855
0,120000	0,127774
0,120500	0,116102
0,121000	0,094073
0,121500	0,065962
0,122000	0,039002
0,122500	0,007438
0,123000	-0,018371
0,123500	-0,031852
0,124000	-0,033824
0,124500	-0,032180
0,125000	-0,034811
0,125500	-0,037277
0,126000	-0,038427
0,126500	-0,045167
0,127000	-0,049770
0,127500	-0,047962
0,128000	-0,066045
0,128500	-0,078375
0,129000	-0,050921
0,129500	-0,004562
0,130000	0,009082
0,130500	-0,025605
0,131000	-0,061607
0,131500	-0,088074
0,132000	-0,108459
0,132500	-0,127692
0,133000	-0,141337
0,133500	-0,173229
0,134000	-0,206601
0,134500	-0,211861
0,135000	-0,155146
0,135500	-0,095636
0,136000	-0,066538
0,136500	-0,010645
0,137000	0,062017
0,137500	0,112156
0,138000	0,153090
0,138500	0,158186
0,139000	0,137308
0,139500	0,135665
0,140000	0,151775
0,140500	0,168214
0,141000	0,173475
0,141500	0,186955
0,142000	0,189585
0,142500	0,175941
0,143000	0,142076
0,143500	0,101471
0,144000	0,063661
0,144500	0,040646
0,145000	0,030782
0,145500	0,030946
0,146000	0,041632
0,146500	0,046893
0,147000	0,026179
0,147500	-0,001932
0,148000	-0,019193
0,148500	-0,037605
0,149000	-0,061607
0,149500	-0,085115
0,150000	-0,104677
0,150500	-0,106650
0,151000	-0,106815
0,151500	-0,108623
0,152000	-0,093334
0,152500	-0,077224
0,153000	-0,074758
0,153500	-0,088896
0,154000	-0,114048
0,154500	-0,122432
0,155000	-0,105171
0,155500	-0,081498
0,156000	-0,078046
0,156500	-0,084950
0,157000	-0,069004
0,157500	-0,066045
0,158000	-0,078539
0,158500	-0,086430
0,159000	-0,053387
0,159500	-0,005056
0,160000	0,046071
0,160500	0,067442
0,161000	0,076976
0,161500	0,084374
0,162000	0,102950
0,162500	0,102786
0,163000	0,066948
0,163500	0,037193
0,164000	0,027165
0,164500	0,019932
0,165000	-0,006535
0,165500	-0,013768
0,166000	0,012534
0,166500	0,042783
0,167000	0,056756
0,167500	0,084538
0,168000	0,116759
0,168500	0,131719
0,169000	0,082401
0,169500	0,028152
0,170000	0,038837
0,170500	0,051496
0,171000	0,033577
0,171500	0,042783
0,172000	0,069743
0,172500	0,096210
0,173000	0,140268
0,173500	0,178735
0,174000	0,169529
0,174500	0,134349
0,175000	0,122349
0,175500	0,146021
0,176000	0,152104
0,176500	0,124157
0,177000	0,107718
0,177500	0,103279
0,178000	0,082401
0,178500	0,045249
0,179000	0,018288
0,179500	0,017302
0,180000	0,018617
0,180500	0,011219
0,181000	-0,005384
0,181500	-0,019851
0,182000	-0,030372
0,182500	-0,034317
0,183000	-0,024125
0,183500	-0,010316
0,184000	-0,008837
0,184500	0,007438
0,185000	0,041796
0,185500	0,083388
0,186000	0,103937
0,186500	0,116924
0,187000	0,122349
0,187500	0,110348
0,188000	0,092758
0,188500	0,093580
0,189000	0,103937
0,189500	0,134185
0,190000	0,163776
0,190500	0,164269
0,191000	0,120869
0,191500	0,068099
0,192000	0,034234
0,192500	0,042783
0,193000	0,048043
0,193500	0,011055
0,194000	-0,059963
0,194500	-0,121774
0,195000	-0,148406
0,195500	-0,135090
0,196000	-0,089882
0,196500	-0,044181
0,197000	-0,032838
0,197500	-0,022317
0,198000	0,004150
0,198500	0,038509
0,199000	0,061688
0,199500	0,083388
0,200000	0,121691
0,200500	0,147665
0,201000	0,158022
0,201500	0,156871
0,202000	0,146350
0,202500	0,139281
0,203000	0,135171
0,203500	0,122513
0,204000	0,112650
0,204500	0,098676
0,205000	0,075168
0,205500	0,059222
0,206000	0,051660
0,206500	0,052317
0,207000	0,047879
0,207500	0,039495
0,208000	0,024700
0,208500	0,010233
0,209000	-0,004727
0,209500	-0,023139
0,210000	-0,045167
0,210500	-0,067032
0,211000	-0,075580
0,211500	-0,077388
0,212000	-0,081827
0,212500	-0,096458
0,213000	-0,116514
0,213500	-0,113062
0,214000	-0,085115
0,214500	-0,046154
0,215000	0,002835
0,215500	0,052317
0,216000	0,090128
0,216500	0,102786
0,217000	0,072373
0,217500	0,032426
0,218000	0,011713
0,218500	0,026343
0,219000	0,038180
0,219500	0,028974
0,220000	0,013521
0,220500	-0,045332
0,221000	-0,091197
0,221500	-0,099746
0,222000	-0,091526
0,222500	-0,092348
0,223000	-0,102212
0,223500	-0,095800
0,224000	-0,080347
0,224500	-0,057332
0,225000	-0,015412
0,225500	0,029303
0,226000	0,021740
0,226500	-0,012618
0,227000	-0,030536
0,227500	-0,036619
0,228000	-0,062429
0,228500	-0,108787
0,229000	-0,154982
0,229500	-0,165667
0,230000	-0,132953
0,230500	-0,103691
0,231000	-0,102376
0,231500	-0,132789
0,232000	-0,139858
0,232500	-0,135912
0,233000	-0,139529
0,233500	-0,121446
0,234000	-0,081663
0,234500	-0,066703
0,235000	-0,066867
0,235500	-0,100568
0,236000	-0,143967
0,236500	-0,125227
0,237000	-0,070813
0,237500	0,015329
0,238000	0,132870
0,238500	0,206518
0,239000	0,228382
0,239500	0,222464
0,240000	0,229368
0,240500	0,246630
0,241000	0,262905
0,241500	0,242191
0,242000	0,212272
0,242500	0,205860
0,243000	0,190407
0,243500	0,148158
0,244000	0,123171
0,244500	0,128431
0,245000	0,130733
0,245500	0,141254
0,246000	0,136487
0,246500	0,115115
0,247000	0,098019
0,247500	0,093251
0,248000	0,068099
0,248500	0,033084
0,249000	0,026837
0,249500	0,028152
0,250000	0,029303
0,250500	0,033577
0,251000	0,043605
0,251500	0,031440
0,252000	0,034399
0,252500	0,043112
0,253000	0,033906
0,253500	0,012534
0,254000	-0,000288
0,254500	-0,021659
0,255000	-0,036948
0,255500	-0,044181
0,256000	-0,021824
0,256500	0,018453
0,257000	0,037522
0,257500	0,033084
0,258000	0,011384
0,258500	-0,031852
0,259000	-0,063908
0,259500	-0,061771
0,260000	-0,022974
0,260500	0,027165
0,261000	0,068757
0,261500	0,106731
0,262000	0,129089
0,262500	0,121527
0,263000	0,118239
0,263500	0,109691
0,264000	0,084045
0,264500	0,061523
0,265000	0,036371
0,265500	0,002013
0,266000	-0,030536
0,266500	-0,044510
0,267000	-0,043523
0,267500	-0,039414
0,268000	-0,033002
0,268500	0,024371
0,269000	0,088813
0,269500	0,097854
0,270000	0,070565
0,270500	0,015822
0,271000	-0,027906
0,271500	-0,040236
0,272000	-0,038098
0,272500	-0,053223
0,273000	-0,073936
0,273500	-0,096951
0,274000	-0,087581
0,274500	-0,056017
0,275000	-0,018700
0,275500	-0,001110
0,276000	0,013850
0,276500	0,034563
0,277000	0,077141
0,277500	0,123006
0,278000	0,137966
0,278500	0,140432
0,279000	0,158844
0,279500	0,179393
0,280000	0,172489
0,280500	0,136322
0,281000	0,101964
0,281500	0,084538
0,282000	0,075497
0,282500	0,083716
0,283000	0,092429
0,283500	0,093416
0,284000	0,086511
0,284500	0,064154
0,285000	0,033741
0,285500	0,008918
0,286000	-0,012453
0,286500	-0,042866
0,287000	-0,082978
0,287500	-0,109445
0,288000	-0,100732
0,288500	-0,097444
0,289000	-0,096622
0,289500	-0,072457
0,290000	-0,036783
0,290500	-0,026427
0,291000	-0,015248
0,291500	0,002671
0,292000	0,010069
0,292500	0,002671
0,293000	-0,001768
0,293500	0,014507
0,294000	0,047714
0,294500	0,041632
0,295000	0,020918
0,295500	0,022891
0,296000	0,039495
0,296500	0,058729
0,297000	0,064318
0,297500	0,058729
0,298000	0,055934
0,298500	0,090785
0,299000	0,101471
0,299500	0,079771
0,300000	0,066455
0,300500	0,057085
0,301000	0,044098
0,301500	0,026672
0,302000	-0,004398
0,302500	-0,029386
0,303000	-0,040236
0,303500	-0,057990
0,304000	-0,082978
0,304500	-0,108623
0,305000	-0,146926
0,305500	-0,173558
0,306000	-0,176681
0,306500	-0,150050
0,307000	-0,111746
0,307500	-0,086430
0,308000	-0,053223
0,308500	-0,004891
0,309000	0,035714
0,309500	0,081086
0,310000	0,119718
0,310500	0,138788
0,311000	0,150953
0,311500	0,145693
0,312000	0,125965
0,312500	0,114787
0,313000	0,112156
0,313500	0,111334
0,314000	0,107882
0,314500	0,117253
0,315000	0,134185
0,315500	0,136322
0,316000	0,090785
0,316500	0,065633
0,317000	0,062839
0,317500	0,053468
0,318000	0,034563
0,318500	0,015329
0,319000	-0,015741
0,319500	-0,043852
0,320000	-0,065552
0,320500	-0,093334
0,321000	-0,126213
0,321500	-0,151858
0,322000	-0,186381
0,322500	-0,189504
0,323000	-0,157448
0,323500	-0,128186
0,324000	-0,093992
0,324500	-0,037934
0,325000	0,005466
0,325500	0,023220
0,326000	0,025521
0,326500	0,034399
0,327000	0,064811
0,327500	0,106403
0,328000	0,105416
0,328500	0,050674
0,329000	0,001685
0,329500	-0,009330
0,330000	-0,001768
0,330500	0,006781
0,331000	0,026179
0,331500	0,052975
0,332000	0,088813
0,332500	0,118239
0,333000	0,134185
0,333500	0,151282
0,334000	0,162625
0,334500	0,171831
0,335000	0,130733
0,335500	0,036207
0,336000	-0,038756
0,336500	-0,063251
0,337000	-0,048948
0,337500	-0,012289
0,338000	0,006781
0,338500	0,027659
0,339000	0,028481
0,339500	-0,007850
0,340000	-0,038427
0,340500	-0,039414
0,341000	-0,010809
0,341500	0,026015
0,342000	0,032590
0,342500	0,045906
0,343000	0,076154
0,343500	0,088648
0,344000	0,087662
0,344500	0,090785
0,345000	0,102622
0,345500	0,113307
0,346000	0,097032
0,346500	0,063003
0,347000	0,027823
0,347500	0,014507
0,348000	0,030946
0,348500	0,067113
0,349000	0,102786
0,349500	0,138624
0,350000	0,158844
0,350500	0,156871
0,351000	0,138130
0,351500	0,114622
0,352000	0,098512
0,352500	0,096210
0,353000	0,093744
0,353500	0,090128
0,354000	0,075661
0,354500	0,046071
0,355000	0,000698
0,355500	-0,038427
0,356000	-0,070484
0,356500	-0,102212
0,357000	-0,127035
0,357500	-0,128514
0,358000	-0,107965
0,358500	-0,075087
0,359000	-0,033989
0,359500	-0,018371
0,360000	-0,006535
0,360500	0,003822
0,361000	0,008918
0,361500	0,028809
0,362000	0,053468
0,362500	0,057249
0,363000	0,042618
0,363500	0,036700
0,364000	0,046728
0,364500	0,065962
0,365000	0,053961
0,365500	0,011713
0,366000	-0,034317
0,366500	-0,067032
0,367000	-0,063744
0,367500	-0,043195
0,368000	-0,040236
0,368500	-0,039907
0,369000	-0,034646
0,369500	-0,019851
0,370000	0,002178
0,370500	0,020590
0,371000	0,041632
0,371500	0,075332
0,372000	0,095553
0,372500	0,113307
0,373000	0,118403
0,373500	0,099991
0,374000	0,068921
0,374500	0,048701
0,375000	0,019768
0,375500	-0,008015
0,376000	-0,019522
0,376500	-0,022317
0,377000	-0,029879
0,377500	-0,045003
0,378000	-0,061113
0,378500	-0,064073
0,379000	-0,088238
0,379500	-0,124405
0,380000	-0,151858
0,380500	-0,148735
0,381000	-0,107801
0,381500	-0,062593
0,382000	-0,063908
0,382500	-0,075909
0,383000	-0,067689
0,383500	-0,028728
0,384000	0,003822
0,384500	0,001685
0,385000	-0,004891
0,385500	0,008425
0,386000	0,030289
0,386500	0,029303
0,387000	0,008753
0,387500	-0,021002
0,388000	-0,038920
0,388500	-0,050099
0,389000	-0,048620
0,389500	-0,035304
0,390000	-0,026591
0,390500	-0,006535
0,391000	0,038509
0,391500	0,082730
0,392000	0,101800
0,392500	0,119390
0,393000	0,150296
0,393500	0,188270
0,394000	0,217697
0,394500	0,236273
0,395000	0,218354
0,395500	0,178242
0,396000	0,160488
0,396500	0,167557
0,397000	0,192709
0,397500	0,202572
0,398000	0,200600
0,398500	0,193860
0,399000	0,187284
0,399500	0,176270
0,400000	0,150789
0,400500	0,120376
0,401000	0,087498
0,401500	0,069579
0,402000	0,068757
0,402500	0,070729
0,403000	0,067442
0,403500	0,053797
0,404000	0,033906
0,404500	0,026672
0,405000	0,032262
0,405500	0,026508
0,406000	0,006452
0,406500	-0,011302
0,407000	-0,027742
0,407500	-0,048455
0,408000	-0,071306
0,408500	-0,091690
0,409000	-0,093170
0,409500	-0,085937
0,410000	-0,076895
0,410500	-0,060291
0,411000	-0,041715
0,411500	-0,050921
0,412000	-0,084457
0,412500	-0,114870
0,413000	-0,123911
0,413500	-0,117829
0,414000	-0,101718
0,414500	-0,074922
0,415000	-0,035961
0,415500	0,026343
0,416000	0,091936
0,416500	0,125472
0,417000	0,150131
0,417500	0,171831
0,418000	0,156871
0,418500	0,133692
0,419000	0,106403
0,419500	0,071223
0,420000	0,036865
0,420500	0,013192
0,421000	0,004644
0,421500	0,008918
0,422000	0,017137
0,422500	0,014178
0,423000	-0,011960
0,423500	-0,008508
0,424000	0,012699
0,424500	0,019932
0,425000	0,008918
0,425500	0,005466
0,426000	0,021083
0,426500	0,037029
0,427000	0,052811
0,427500	0,074017
0,428000	0,093251
0,428500	0,073195
0,429000	0,044098
0,429500	0,040810
0,430000	0,020097
0,430500	-0,015248
0,431000	-0,014097
0,431500	-0,003905
0,432000	-0,030208
0,432500	-0,072128
0,433000	-0,088074
0,433500	-0,087909
0,434000	-0,099417
0,434500	-0,111911
0,435000	-0,134926
0,435500	-0,148570
0,436000	-0,145940
0,436500	-0,156297
0,437000	-0,177997
0,437500	-0,183586
0,438000	-0,171585
0,438500	-0,150543
0,439000	-0,088074
0,439500	-0,020673
0,440000	0,028316
0,440500	0,072045
0,441000	0,081415
0,441500	0,075826
0,442000	0,094238
0,442500	0,142569
0,443000	0,169694
0,443500	0,185147
0,444000	0,196490
0,444500	0,158680
0,445000	0,107060
0,445500	0,075168
0,446000	0,047221
0,446500	0,061195
0,447000	0,118075
0,447500	0,137144
0,448000	0,107225
0,448500	0,042290
0,449000	-0,022317
0,449500	-0,065716
0,450000	-0,075087
0,450500	-0,061771
0,451000	-0,052565
0,451500	-0,036126
0,452000	-0,007850
0,452500	0,008589
0,453000	0,004315
0,453500	-0,010645
0,454000	-0,016563
0,454500	0,029467
0,455000	0,051002
0,455500	0,033248
0,456000	0,012534
0,456500	0,003657
0,457000	0,005794
0,457500	0,032097
0,458000	0,088319
0,458500	0,118403
0,459000	0,082073
0,459500	0,033412
0,460000	0,013028
0,460500	-0,015248
0,461000	-0,057004
0,461500	-0,085115
0,462000	-0,096129
0,462500	-0,091855
0,463000	-0,072128
0,463500	-0,039907
0,464000	-0,026591
0,464500	-0,040729
0,465000	-0,029714
0,465500	0,026672
0,466000	0,050345
0,466500	0,023878
0,467000	0,024042
0,467500	0,071223
0,468000	0,131719
0,468500	0,167886
0,469000	0,199285
0,469500	0,213422
0,470000	0,200600
0,470500	0,192709
0,471000	0,177256
0,471500	0,150460
0,472000	0,121691
0,472500	0,109526
0,473000	0,133363
0,473500	0,156707
0,474000	0,162625
0,474500	0,162625
0,475000	0,156049
0,475500	0,163283
0,476000	0,178407
0,476500	0,179886
0,477000	0,149309
0,477500	0,106731
0,478000	0,071223
0,478500	0,042618
0,479000	0,025028
0,479500	0,016809
0,480000	0,011055
0,480500	0,008425
0,481000	0,006123
0,481500	0,004479
0,482000	0,005301
0,482500	-0,000617
0,483000	-0,018536
0,483500	-0,031194
0,484000	-0,049606
0,484500	-0,062922
0,485000	-0,061442
0,485500	-0,057004
0,486000	-0,057004
0,486500	-0,065388
0,487000	-0,069004
0,487500	-0,076238
0,488000	-0,089553
0,488500	-0,090375
0,489000	-0,074594
0,489500	-0,069333
0,490000	-0,080183
0,490500	-0,098266
0,491000	-0,089389
0,491500	-0,037441
0,492000	0,040646
0,492500	0,084703
0,493000	0,096704
0,493500	0,090128
0,494000	0,073360
0,494500	0,078620
0,495000	0,109033
0,495500	0,106731
0,496000	0,064483
0,496500	0,008425
0,497000	-0,026098
0,497500	-0,051743
0,498000	-0,057826
0,498500	-0,056182
0,499000	-0,049442
0,499500	-0,029057
0,500000	0,005630
0,500500	0,026179
0,501000	0,021905
0,501500	0,027987
0,502000	0,059222
0,502500	0,073524
0,503000	0,059880
0,503500	0,058071
0,504000	0,068757
0,504500	0,064647
0,505000	0,052646
0,505500	0,026015
0,506000	0,000698
0,506500	-0,011631
0,507000	-0,002096
0,507500	-0,006699
0,508000	-0,022810
0,508500	-0,042208
0,509000	-0,051414
0,509500	-0,052236
0,510000	-0,062922
0,510500	-0,083635
0,511000	-0,048291
0,511500	0,005301
0,512000	0,047057
0,512500	0,047879
0,513000	-0,015248
0,513500	-0,092677
0,514000	-0,131473
0,514500	-0,138214
0,515000	-0,133117
0,515500	-0,112240
0,516000	-0,099088
0,516500	-0,135748
0,517000	-0,218766
0,517500	-0,284687
0,518000	-0,306880
0,518500	-0,279427
0,519000	-0,240301
0,519500	-0,156790
0,520000	-0,046811
0,520500	0,045742
0,521000	0,118075
0,521500	0,193860
0,522000	0,215395
0,522500	0,231999
0,523000	0,253205
0,523500	0,219669
0,524000	0,126294
0,524500	0,072209
0,525000	0,093087
0,525500	0,122842
0,526000	0,166242
0,526500	0,171667
0,527000	0,165091
0,527500	0,182845
0,528000	0,175776
0,528500	0,154077
0,529000	0,137802
0,529500	0,128924
0,530000	0,117746
0,530500	0,095882
0,531000	0,043933
0,531500	-0,012289
0,532000	-0,046482
0,532500	-0,053387
0,533000	-0,060456
0,533500	-0,075744
0,534000	-0,088238
0,534500	-0,103034
0,535000	-0,110760
0,535500	-0,102047
0,536000	-0,073443
0,536500	-0,040564
0,537000	-0,012782
0,537500	0,006781
0,538000	0,040646
0,538500	0,086511
0,539000	0,109197
0,539500	0,114458
0,540000	0,109033
0,540500	0,091772
0,541000	0,100649
0,541500	0,110184
0,542000	0,129582
0,542500	0,176598
0,543000	0,180544
0,543500	0,146843
0,544000	0,130075
0,544500	0,132048
0,545000	0,117253
0,545500	0,082401
0,546000	0,053139
0,546500	0,035385
0,547000	0,007931
0,547500	-0,030701
0,548000	-0,076402
0,548500	-0,119473
0,549000	-0,121939
0,549500	-0,100403
0,550000	-0,069991
0,550500	-0,022317
0,551000	0,039330
0,551500	0,090457
0,552000	0,123828
0,552500	0,155227
0,553000	0,160652
0,553500	0,148158
0,554000	0,171667
0,554500	0,197147
0,555000	0,181859
0,555500	0,137473
0,556000	0,080922
0,556500	0,041139
0,557000	0,042783
0,557500	0,057085
0,558000	0,051167
0,558500	0,033248
0,559000	0,021247
0,559500	0,017959
0,560000	0,011713
0,560500	0,009904
0,561000	0,018124
0,561500	0,037029
0,562000	0,049523
0,562500	0,053633
0,563000	0,053468
0,563500	0,051660
0,564000	0,035221
0,564500	0,012699
0,565000	-0,012782
0,565500	-0,034811
0,566000	-0,050921
0,566500	-0,067196
0,567000	-0,077060
0,567500	-0,079525
0,568000	-0,070813
0,568500	-0,045989
0,569000	-0,031852
0,569500	-0,047304
0,570000	-0,056510
0,570500	-0,042044
0,571000	-0,035797
0,571500	-0,055524
0,572000	-0,067689
0,572500	-0,068182
0,573000	-0,054045
0,573500	-0,025605
0,574000	0,012370
0,574500	0,044920
0,575000	0,050180
0,575500	0,030946
0,576000	-0,016563
0,576500	-0,052236
0,577000	-0,060456
0,577500	-0,080512
0,578000	-0,113555
0,578500	-0,126213
0,579000	-0,132131
0,579500	-0,146762
0,580000	-0,165832
0,580500	-0,167475
0,581000	-0,155475
0,581500	-0,119144
0,582000	-0,062429
0,582500	-0,016399
0,583000	4,062799E-5
0,583500	0,016809
0,584000	0,070236
0,584500	0,160323
0,585000	0,190901
0,585500	0,176763
0,586000	0,171502
0,586500	0,190407
0,587000	0,196325
0,587500	0,169036
0,588000	0,138130
0,588500	0,120540
0,589000	0,126459
0,589500	0,131062
0,590000	0,115444
0,590500	0,093909
0,591000	0,079607
0,591500	0,059880
0,592000	0,036371
0,592500	0,028481
0,593000	0,032590
0,593500	0,015329
0,594000	-0,013604
0,594500	-0,039249
0,595000	-0,062429
0,595500	-0,070319
0,596000	-0,058812
0,596500	-0,061113
0,597000	-0,093170
0,597500	-0,123089
0,598000	-0,131145
0,598500	-0,113883
0,599000	-0,096458
0,599500	-0,087087
0,600000	-0,075580
0,600500	-0,068511
0,601000	-0,046482
0,601500	-0,006042
0,602000	0,005959
0,602500	0,005794
0,603000	0,022234
0,603500	0,045249
0,604000	0,070894
0,604500	0,105416
0,605000	0,137473
0,605500	0,144377
0,606000	0,148158
0,606500	0,167064
0,607000	0,181037
0,607500	0,164926
0,608000	0,143720
0,608500	0,145528
0,609000	0,129089
0,609500	0,079113
0,610000	0,023878
0,610500	-0,032838
0,611000	-0,111089
0,611500	-0,189175
0,612000	-0,231589
0,612500	-0,238000
0,613000	-0,212190
0,613500	-0,149557
0,614000	-0,092512
0,614500	-0,056346
0,615000	-0,005549
0,615500	0,071223
0,616000	0,129089
0,616500	0,165091
0,617000	0,148816
0,617500	0,092758
0,618000	0,045577
0,618500	0,012863
0,619000	0,003493
0,619500	0,026837
0,620000	0,053797
0,620500	0,050838
0,621000	0,032097
0,621500	0,006123
0,622000	-0,004069
0,622500	0,006288
0,623000	0,016151
0,623500	-0,007686
0,624000	-0,048948
0,624500	-0,065552
0,625000	-0,064073
0,625500	-0,058648
0,626000	-0,030701
0,626500	0,031275
0,627000	0,086511
0,627500	0,117746
0,628000	0,137637
0,628500	0,171667
0,629000	0,200600
0,629500	0,198956
0,630000	0,174297
0,630500	0,171009
0,631000	0,159502
0,631500	0,156378
0,632000	0,140761
0,632500	0,100649
0,633000	0,043769
0,633500	-0,003247
0,634000	-0,037112
0,634500	-0,072292
0,635000	-0,113226
0,635500	-0,150379
0,636000	-0,181778
0,636500	-0,208574
0,637000	-0,240466
0,637500	-0,250001
0,638000	-0,211861
0,638500	-0,140515
0,639000	-0,117665
0,639500	-0,128514
0,640000	-0,144625
0,640500	-0,155475
0,641000	-0,150707
0,641500	-0,086759
0,642000	-0,031030
0,642500	0,013028
0,643000	0,099663
0,643500	0,196490
0,644000	0,258466
0,644500	0,325045
0,645000	0,332936
0,645500	0,277535
0,646000	0,210299
0,646500	0,150460
0,647000	0,103937
0,647500	0,076648
0,648000	0,056099
0,648500	0,049030
0,649000	0,057414
0,649500	0,085032
0,650000	0,115280
0,650500	0,135993
0,651000	0,139446
0,651500	0,139117
0,652000	0,169201
0,652500	0,193202
0,653000	0,157364
0,653500	0,124157
0,654000	0,128924
0,654500	0,114622
0,655000	0,075497
0,655500	0,061359
0,656000	0,056427
0,656500	0,049687
0,657000	0,042618
0,657500	0,035385
0,658000	0,034399
0,658500	0,033412
0,659000	0,030289
0,659500	0,029467
0,660000	0,030946
0,660500	0,026837
0,661000	0,023549
0,661500	0,021083
0,662000	0,016809
0,662500	0,006945
0,663000	-0,004234
0,663500	-0,020508
0,664000	-0,041715
0,664500	-0,057332
0,665000	-0,067196
0,665500	-0,075580
0,666000	-0,086430
0,666500	-0,080183
0,667000	-0,057497
0,667500	-0,046811
0,668000	-0,032345
0,668500	0,001191
0,669000	0,032097
0,669500	0,042290
0,670000	0,065962
0,670500	0,096046
0,671000	0,101307
0,671500	0,081744
0,672000	0,060866
0,672500	0,051824
0,673000	0,046893
0,673500	0,028809
0,674000	0,022398
0,674500	0,027330
0,675000	0,028316
0,675500	0,019932
0,676000	0,002013
0,676500	-0,012618
0,677000	-0,016563
0,677500	-0,025933
0,678000	-0,040729
0,678500	-0,054045
0,679000	-0,064894
0,679500	-0,067689
0,680000	-0,062593
0,680500	-0,057168
0,681000	-0,053223
0,681500	-0,051250
0,682000	-0,043195
0,682500	-0,016563
0,683000	0,001356
0,683500	-0,021988
0,684000	-0,060949
0,684500	-0,060785
0,685000	-0,046482
0,685500	-0,040400
0,686000	-0,050099
0,686500	-0,060127
0,687000	-0,058648
0,687500	-0,044674
0,688000	-0,034482
0,688500	-0,037605
0,689000	-0,039414
0,689500	-0,040729
0,690000	-0,041879
0,690500	-0,059634
0,691000	-0,066538
0,691500	-0,064073
0,692000	-0,034975
0,692500	-0,000617
0,693000	0,004644
0,693500	0,010397
0,694000	0,035221
0,694500	0,052482
0,695000	0,033248
0,695500	-0,023796
0,696000	-0,068511
0,696500	-0,054045
0,697000	-0,008179
0,697500	0,039330
0,698000	0,078785
0,698500	0,095388
0,699000	0,090457
0,699500	0,091279
0,700000	0,093909
0,700500	0,068099
0,701000	0,025193
0,701500	-0,012289
0,702000	-0,038427
0,702500	-0,081827
0,703000	-0,125391
0,703500	-0,152680
0,704000	-0,130652
0,704500	-0,069662
0,705000	0,004808
0,705500	0,050838
0,706000	0,085525
0,706500	0,098347
0,707000	0,121691
0,707500	0,110841
0,708000	0,065305
0,708500	0,016316
0,709000	-0,034482
0,709500	-0,068511
0,710000	-0,085608
0,710500	-0,107308
0,711000	-0,133117
0,711500	-0,143639
0,712000	-0,135255
0,712500	-0,116678
0,713000	-0,114377
0,713500	-0,110924
0,714000	-0,140022
0,714500	-0,180791
0,715000	-0,164188
0,715500	-0,089225
0,716000	0,054126
0,716500	0,175776
0,717000	0,198791
0,717500	0,213915
0,718000	0,228875
0,718500	0,201915
0,719000	0,148323
0,719500	0,083059
0,720000	0,070729
0,720500	0,127609
0,721000	0,207669
0,721500	0,241698
0,722000	0,221149
0,722500	0,175448
0,723000	0,143062
0,723500	0,132377
0,724000	0,154734
0,724500	0,177256
0,725000	0,153255
0,725500	0,110348
0,726000	0,072538
0,726500	0,041796
0,727000	0,043440
0,727500	0,059058
0,728000	0,070894
0,728500	0,066620
0,729000	0,022562
0,729500	-0,036126
0,730000	-0,078210
0,730500	-0,111746
0,731000	-0,137556
0,731500	-0,154160
0,732000	-0,160242
0,732500	-0,144954
0,733000	-0,127199
0,733500	-0,121281
0,734000	-0,107308
0,734500	-0,082649
0,735000	-0,045825
0,735500	0,017795
0,736000	0,075497
0,736500	0,105745
0,737000	0,155392
0,737500	0,216217
0,738000	0,213587
0,738500	0,171009
0,739000	0,140761
0,739500	0,123993
0,740000	0,135007
0,740500	0,153912
0,741000	0,142405
0,741500	0,126130
0,742000	0,117088
0,742500	0,110184
0,743000	0,104759
0,743500	0,090457
0,744000	0,079278
0,744500	0,077963
0,745000	0,069250
0,745500	0,049194
0,746000	0,032919
0,746500	0,028481
0,747000	0,025357
0,747500	0,006123
0,748000	-0,022152
0,748500	-0,053058
0,749000	-0,084128
0,749500	-0,113883
0,750000	-0,126706
0,750500	-0,127692
0,751000	-0,138049
0,751500	-0,155968
0,752000	-0,138871
0,752500	-0,104020
0,753000	-0,081334
0,753500	-0,074429
0,754000	-0,054209
0,754500	-0,008015
0,755000	0,065798
0,755500	0,128924
0,756000	0,169858
0,756500	0,200928
0,757000	0,205203
0,757500	0,192380
0,758000	0,138624
0,758500	0,036536
0,759000	-0,036948
0,759500	-0,049935
0,760000	-0,044510
0,760500	-0,035797
0,761000	-0,018207
0,761500	-0,008672
0,762000	-0,026591
0,762500	-0,051743
0,763000	-0,058154
0,763500	-0,054702
0,764000	-0,050428
0,764500	-0,017385
0,765000	0,050345
0,765500	0,110677
0,766000	0,128760
0,766500	0,131390
0,767000	0,121691
0,767500	0,086676
0,768000	0,047879
0,768500	0,029796
0,769000	0,028809
0,769500	0,015658
0,770000	-0,006535
0,770500	-0,017385
0,771000	-0,017549
0,771500	-0,022317
0,772000	-0,024289
0,772500	-0,011302
0,773000	0,008918
0,773500	0,002178
0,774000	-0,025111
0,774500	-0,049277
0,775000	-0,059963
0,775500	-0,055360
0,776000	-0,061442
0,776500	-0,072292
0,777000	-0,075416
0,777500	-0,090375
0,778000	-0,089060
0,778500	-0,061113
0,779000	-0,035139
0,779500	-0,007193
0,780000	0,022069
0,780500	0,028481
0,781000	-0,018865
0,781500	-0,077881
0,782000	-0,132789
0,782500	-0,153995
0,783000	-0,141995
0,783500	-0,106486
0,784000	-0,050921
0,784500	-0,012453
0,785000	0,004315
0,785500	0,018946
0,786000	0,027165
0,786500	0,041468
0,787000	0,056099
0,787500	0,056592
0,788000	0,062181
0,788500	0,054783
0,789000	0,046893
0,789500	0,051660
0,790000	0,012206
0,790500	-0,043359
0,791000	-0,063908
0,791500	-0,066867
0,792000	-0,093992
0,792500	-0,125227
0,793000	-0,118651
0,793500	-0,058319
0,794000	0,022891
0,794500	0,097032
0,795000	0,157858
0,795500	0,210463
0,796000	0,225587
0,796500	0,221313
0,797000	0,232163
0,797500	0,245808
0,798000	0,233643
0,798500	0,199285
0,799000	0,152104
0,799500	0,109855
0,800000	0,089141
0,800500	0,064647
0,801000	0,040317
0,801500	0,019275
0,802000	0,030782
0,802500	0,056592
0,803000	0,060537
0,803500	0,060044
0,804000	0,053304
0,804500	0,056099
0,805000	0,075332
0,805500	0,087333
0,806000	0,077963
0,806500	0,050674
0,807000	0,031275
0,807500	0,023549
0,808000	0,014836
0,808500	-0,003083
0,809000	-0,015905
0,809500	-0,008015
0,810000	0,001520
0,810500	0,004808
0,811000	0,021740
0,811500	0,040810
0,812000	0,034234
0,812500	0,026508
0,813000	0,030289
0,813500	0,026837
0,814000	0,002671
0,814500	-0,048948
0,815000	-0,106979
0,815500	-0,163366
0,816000	-0,223533
0,816500	-0,284030
0,817000	-0,331868
0,817500	-0,362445
0,818000	-0,350280
0,818500	-0,293071
0,819000	-0,228630
0,819500	-0,208902
0,820000	-0,213999
0,820500	-0,217286
0,821000	-0,178819
0,821500	-0,099253
0,822000	0,019768
0,822500	0,159830
0,823000	0,283782
0,823500	0,365650
0,824000	0,402145
0,824500	0,370089
0,825000	0,266521
0,825500	0,152926
0,826000	0,084538
0,826500	0,049852
0,827000	0,011384
0,827500	-0,009987
0,828000	-0,013768
0,828500	0,008096
0,829000	0,055934
0,829500	0,071058
0,830000	0,042783
0,830500	0,012534
0,831000	-0,001603
0,831500	-0,019851
0,832000	-0,058812
0,832500	-0,107965
0,833000	-0,108623
0,833500	-0,093170
0,834000	-0,074265
0,834500	-0,063908
0,835000	-0,055031
0,835500	-0,037277
0,836000	-0,013604
0,836500	0,001027
0,837000	0,044755
0,837500	0,085854
0,838000	0,066126
0,838500	0,025686
0,839000	-0,012124
0,839500	-0,038592
0,840000	-0,060785
0,840500	-0,076073
0,841000	-0,073607
0,841500	-0,035304
0,842000	0,020754
0,842500	0,068428
0,843000	0,119061
0,843500	0,201915
0,844000	0,273426
0,844500	0,256493
0,845000	0,224765
0,845500	0,225423
0,846000	0,189092
0,846500	0,133199
0,847000	0,099827
0,847500	0,073689
0,848000	0,036536
0,848500	-0,004398
0,849000	-0,037934
0,849500	-0,065059
0,850000	-0,096787
0,850500	-0,118651
0,851000	-0,118486
0,851500	-0,102047
0,852000	-0,089718
0,852500	-0,079361
0,853000	-0,059470
0,853500	-0,029221
0,854000	0,025028
0,854500	0,093744
0,855000	0,123828
0,855500	0,101307
0,856000	0,071880
0,856500	0,058564
0,857000	0,071551
0,857500	0,062674
0,858000	0,020754
0,858500	-0,004234
0,859000	0,011384
0,859500	0,051989
0,860000	0,066455
0,860500	0,078456
0,861000	0,116759
0,861500	0,166899
0,862000	0,191558
0,862500	0,185969
0,863000	0,170023
0,863500	0,151446
0,864000	0,150624
0,864500	0,135665
0,865000	0,102457
0,865500	0,081415
0,866000	0,074675
0,866500	0,068428
0,867000	0,048043
0,867500	0,020097
0,868000	-0,001110
0,868500	-0,003247
0,869000	0,002835
0,869500	0,009247
0,870000	0,012370
0,870500	0,014178
0,871000	0,024042
0,871500	0,038180
0,872000	0,054126
0,872500	0,063661
0,873000	0,052975
0,873500	0,033412
0,874000	0,043112
0,874500	0,061523
0,875000	0,044920
0,875500	0,017795
0,876000	0,001685
0,876500	0,014507
0,877000	0,026179
0,877500	0,025686
0,878000	0,023056
0,878500	0,015000
0,879000	0,003493
0,879500	-0,016563
0,880000	-0,041058
0,880500	-0,078046
0,881000	-0,128350
0,881500	-0,176024
0,882000	-0,213012
0,882500	-0,243918
0,883000	-0,238822
0,883500	-0,188847
0,884000	-0,127857
0,884500	-0,051250
0,885000	0,016973
0,885500	0,058071
0,886000	0,063003
0,886500	0,042125
0,887000	0,024700
0,887500	0,004808
0,888000	0,010069
0,888500	0,010233
0,889000	-0,016563
0,889500	-0,041715
0,890000	-0,045661
0,890500	-0,030701
0,891000	-0,020015
0,891500	-0,013111
0,892000	4,062799E-5
0,892500	0,027659
0,893000	0,050838
0,893500	0,052153
0,894000	0,049030
0,894500	0,051167
0,895000	0,068757
0,895500	0,080264
0,896000	0,084210
0,896500	0,068264
0,897000	0,037358
0,897500	0,020261
0,898000	-0,004069
0,898500	-0,043195
0,899000	-0,062757
0,899500	-0,072457
0,900000	-0,088074
0,900500	-0,092841
0,901000	-0,061771
0,901500	-0,061607
0,902000	-0,096458
0,902500	-0,110431
0,903000	-0,112404
0,903500	-0,142488
0,904000	-0,176517
0,904500	-0,200518
0,905000	-0,211861
0,905500	-0,197066
0,906000	-0,167311
0,906500	-0,138378
0,907000	-0,103198
0,907500	-0,052236
0,908000	0,013192
0,908500	0,078292
0,909000	0,123171
0,909500	0,183832
0,910000	0,247452
0,910500	0,293317
0,911000	0,331785
0,911500	0,327511
0,912000	0,309921
0,912500	0,285591
0,913000	0,236602
0,913500	0,168707
0,914000	0,110348
0,914500	0,090785
0,915000	0,072209
0,915500	0,035385
0,916000	0,020097
0,916500	0,039002
0,917000	0,056592
0,917500	0,065305
0,918000	0,086018
0,918500	0,085525
0,919000	0,055112
0,919500	0,036865
0,920000	0,050838
0,920500	0,070236
0,921000	0,062839
0,921500	0,060044
0,922000	0,066291
0,922500	0,056263
0,923000	0,017466
0,923500	-0,014262
0,924000	-0,017714
0,924500	-0,010152
0,925000	-0,008179
0,925500	-0,004727
0,926000	-0,011138
0,926500	-0,019029
0,927000	-0,030208
0,927500	-0,050757
0,928000	-0,077388
0,928500	-0,084128
0,929000	-0,081334
0,929500	-0,113719
0,930000	-0,153173
0,930500	-0,176681
0,931000	-0,190655
0,931500	-0,195093
0,932000	-0,192956
0,932500	-0,182106
0,933000	-0,149557
0,933500	-0,097609
0,934000	-0,050757
0,934500	-0,019686
0,935000	-0,029386
0,935500	-0,065552
0,936000	-0,113555
0,936500	-0,155639
0,937000	-0,153831
0,937500	-0,082978
0,938000	0,068428
0,938500	0,170845
0,939000	0,169201
0,939500	0,139446
0,940000	0,136815
0,940500	0,169201
0,941000	0,203230
0,941500	0,216546
0,942000	0,187777
0,942500	0,158844
0,943000	0,150131
0,943500	0,153583
0,944000	0,128760
0,944500	0,104266
0,945000	0,123006
0,945500	0,148816
0,946000	0,151775
0,946500	0,152597
0,947000	0,160981
0,947500	0,159337
0,948000	0,143555
0,948500	0,131390
0,949000	0,110841
0,949500	0,078127
0,950000	0,046399
0,950500	0,024042
0,951000	0,023056
0,951500	0,029467
0,952000	0,029467
0,952500	0,015165
0,953000	-0,001932
0,953500	-0,010645
0,954000	-0,004398
0,954500	0,005794
0,955000	0,020590
0,955500	0,037358
0,956000	0,051824
0,956500	0,051167
0,957000	0,047057
0,957500	0,027987
0,958000	0,000698
0,958500	-0,015083
0,959000	-0,024289
0,959500	-0,025440
0,960000	-0,040071
0,960500	-0,055031
0,961000	-0,052072
0,961500	-0,047304
0,962000	-0,053058
0,962500	-0,055688
0,963000	-0,057168
0,963500	-0,060949
0,964000	-0,057332
0,964500	-0,031687
0,965000	-0,005384
0,965500	-0,004069
0,966000	-0,018536
0,966500	-0,021002
0,967000	-0,006699
0,967500	0,000534
0,968000	0,000698
0,968500	0,014343
0,969000	0,018617
0,969500	-0,008343
0,970000	-0,030208
0,970500	-0,035961
0,971000	-0,050592
0,971500	-0,067032
0,972000	-0,079854
0,972500	-0,097444
0,973000	-0,099088
0,973500	-0,088074
0,974000	-0,073278
0,974500	-0,057497
0,975000	-0,046482
0,975500	-0,031030
0,976000	0,003822
0,976500	0,051824
0,977000	0,108211
0,977500	0,114458
0,978000	0,097854
0,978500	0,083059
0,979000	0,047386
0,979500	0,005301
0,980000	-0,030701
0,980500	-0,059963
0,981000	-0,086101
0,981500	-0,108130
0,982000	-0,149063
0,982500	-0,205450
0,983000	-0,262166
0,983500	-0,281235
0,984000	-0,246055
0,984500	-0,170928
0,985000	-0,066210
0,985500	0,031440
0,986000	0,081579
0,986500	0,134185
0,987000	0,206847
0,987500	0,260274
0,988000	0,247123
0,988500	0,224601
0,989000	0,214409
0,989500	0,216381
0,990000	0,233643
0,990500	0,242355
0,991000	0,213258
0,991500	0,157364
0,992000	0,081251
0,992500	-0,004069
0,993000	-0,047469
0,993500	-0,045989
0,994000	-0,018371
0,994500	0,034563
0,995000	0,112321
0,995500	0,142733
0,996000	0,131226
0,996500	0,121362
0,997000	0,105909
0,997500	0,077634
0,998000	0,061359
0,998500	0,054948
0,999000	0,049687
0,999500	0,028152
1,000000	0,017302
1,000500	0,024864
1,001000	0,054948
1,001500	0,076976
1,002000	0,055441
1,002500	0,041468
1,003000	0,042947
1,003500	0,022562
1,004000	-0,019522
1,004500	-0,054538
1,005000	-0,078046
1,005500	-0,088403
1,006000	-0,084950
1,006500	-0,078210
1,007000	-0,069169
1,007500	-0,065552
1,008000	-0,067032
1,008500	-0,068511
1,009000	-0,068675
1,009500	-0,058483
1,010000	-0,022317
1,010500	0,029631
1,011000	0,084867
1,011500	0,134021
1,012000	0,125965
1,012500	0,081579
1,013000	0,044920
1,013500	-0,010316
1,014000	-0,053223
1,014500	-0,072785
1,015000	-0,060785
1,015500	-0,040564
1,016000	-0,055195
1,016500	-0,075087
1,017000	-0,058812
1,017500	-0,030865
1,018000	-0,019686
1,018500	-0,014426
1,019000	-0,016070
1,019500	-0,024125
1,020000	-0,047633
1,020500	-0,075251
1,021000	-0,089389
1,021500	-0,079361
1,022000	-0,037112
1,022500	0,012206
1,023000	0,049523
1,023500	0,069250
1,024000	0,026343
1,024500	-0,034153
1,025000	-0,085772
1,025500	-0,117336
1,026000	-0,146269
1,026500	-0,150543
1,027000	-0,102705
1,027500	-0,042373
1,028000	0,019768
1,028500	0,072209
1,029000	0,083059
1,029500	0,036536
1,030000	-0,008343
1,030500	-0,045332
1,031000	-0,093334
1,031500	-0,158763
1,032000	-0,191970
1,032500	-0,180134
1,033000	-0,125062
1,033500	-0,050099
1,034000	0,049852
1,034500	0,164433
1,035000	0,246136
1,035500	0,283125
1,036000	0,282960
1,036500	0,287728
1,037000	0,276056
1,037500	0,245808
1,038000	0,209148
1,038500	0,168379
1,039000	0,116102
1,039500	0,092758
1,040000	0,107882
1,040500	0,118239
1,041000	0,114458
1,041500	0,118239
1,042000	0,111170
1,042500	0,096210
1,043000	0,107882
1,043500	0,123500
1,044000	0,119554
1,044500	0,104923
1,045000	0,088813
1,045500	0,073360
1,046000	0,057249
1,046500	0,046071
1,047000	0,048536
1,047500	0,051824
1,048000	0,062181
1,048500	0,077305
1,049000	0,097690
1,049500	0,104430
1,050000	0,089799
1,050500	0,065469
1,051000	0,036207
1,051500	-0,006042
1,052000	-0,044674
1,052500	-0,064073
1,053000	-0,060456
1,053500	-0,067525
1,054000	-0,099088
1,054500	-0,131473
1,055000	-0,163201
1,055500	-0,182106
1,056000	-0,168462
1,056500	-0,147913
1,057000	-0,108130
1,057500	-0,017385
1,058000	0,054783
1,058500	0,051002
1,059000	0,009247
1,059500	-0,019193
1,060000	0,006123
1,060500	0,052482
1,061000	0,056099
1,061500	0,015494
1,062000	-0,009494
1,062500	-0,019851
1,063000	-0,036290
1,063500	-0,054538
1,064000	-0,045496
1,064500	-0,031523
1,065000	-0,022974
1,065500	-0,001932
1,066000	0,013850
1,066500	0,040810
1,067000	0,087333
1,067500	0,119554
1,068000	0,131226
1,068500	0,135336
1,069000	0,125965
1,069500	0,104266
1,070000	0,084210
1,070500	0,078456
1,071000	0,102128
1,071500	0,135171
1,072000	0,125143
1,072500	0,087333
1,073000	0,058071
1,073500	0,052317
1,074000	0,064647
1,074500	0,075661
1,075000	0,073031
1,075500	0,092101
1,076000	0,114458
1,076500	0,103937
1,077000	0,082895
1,077500	0,066126
1,078000	0,060866
1,078500	0,053961
1,079000	0,025686
1,079500	-0,008672
1,080000	-0,019851
1,080500	-0,011467
1,081000	-0,009494
1,081500	-0,008837
1,082000	-0,010316
1,082500	-0,024289
1,083000	-0,046647
1,083500	-0,069004
1,084000	-0,080512
1,084500	-0,077060
1,085000	-0,075251
1,085500	-0,104020
1,086000	-0,145282
1,086500	-0,191641
1,087000	-0,227972
1,087500	-0,270878
1,088000	-0,305236
1,088500	-0,318717
1,089000	-0,322826
1,089500	-0,308689
1,090000	-0,257234
1,090500	-0,187531
1,091000	-0,123418
1,091500	-0,063251
1,092000	0,004150
1,092500	0,078620
1,093000	0,111992
1,093500	0,094895
1,094000	0,043276
1,094500	0,010891
1,095000	0,017631
1,095500	0,046893
1,096000	0,088813
1,096500	0,168543
1,097000	0,223450
1,097500	0,193695
1,098000	0,135829
1,098500	0,115280
1,099000	0,112485
1,099500	0,113636
1,100000	0,114129
1,100500	0,114951
1,101000	0,114129
1,101500	0,080100
1,102000	0,046235
1,102500	0,030618
1,103000	0,031933
1,103500	0,042454
1,104000	0,048208
1,104500	0,069743
1,105000	0,081744
1,105500	0,076483
1,106000	0,094073
1,106500	0,143884
1,107000	0,169365
1,107500	0,156378
1,108000	0,143062
1,108500	0,134021
1,109000	0,116102
1,109500	0,075332
1,110000	0,024371
1,110500	-0,009987
1,111000	-0,027906
1,111500	-0,047304
1,112000	-0,066703
1,112500	-0,077224
1,113000	-0,086923
1,113500	-0,101883
1,114000	-0,116021
1,114500	-0,143967
1,115000	-0,180627
1,115500	-0,210218
1,116000	-0,245069
1,116500	-0,269235
1,117000	-0,273509
1,117500	-0,251809
1,118000	-0,193778
1,118500	-0,107965
1,119000	-0,038263
1,119500	-0,015248
1,120000	-0,025605
1,120500	-0,018536
1,121000	0,037522
1,121500	0,096539
1,122000	0,143062
1,122500	0,222793
1,123000	0,295783
1,123500	0,291673
1,124000	0,234958
1,124500	0,173639
1,125000	0,140268
1,125500	0,149145
1,126000	0,151446
1,126500	0,119883
1,127000	0,087662
1,127500	0,081744
1,128000	0,106074
1,128500	0,113307
1,129000	0,076648
1,129500	0,030946
1,130000	0,011219
1,130500	0,011548
1,131000	0,004644
1,131500	-0,012946
1,132000	-0,025276
1,132500	-0,043523
1,133000	-0,055360
1,133500	-0,067854
1,134000	-0,053551
1,134500	4,062799E-5
1,135000	0,035221
1,135500	0,025686
1,136000	0,003164
1,136500	-0,009001
1,137000	-0,002261
1,137500	0,020918
1,138000	0,053633
1,138500	0,075826
1,139000	0,064483
1,139500	0,049358
1,140000	0,047550
1,140500	0,044262
1,141000	0,017302
1,141500	-0,020344
1,142000	-0,024125
1,142500	-0,009659
1,143000	0,003986
1,143500	0,025686
1,144000	0,039824
1,144500	0,035549
1,145000	0,037029
1,145500	0,039330
1,146000	0,028809
1,146500	0,035056
1,147000	0,054783
1,147500	0,078456
1,148000	0,112978
1,148500	0,118568
1,149000	0,110512
1,149500	0,103115
1,150000	0,089470
1,150500	0,071058
1,151000	0,055441
1,151500	0,051002
1,152000	0,065633
1,152500	0,085525
1,153000	0,098347
1,153500	0,104759
1,154000	0,113472
1,154500	0,121198
1,155000	0,110184
1,155500	0,091607
1,156000	0,084703
1,156500	0,075168
1,157000	0,049358
1,157500	0,021740
1,158000	0,010891
1,158500	-0,000781
1,159000	-0,014426
1,159500	-0,020673
1,160000	-0,023796
1,160500	-0,027413
1,161000	-0,026098
1,161500	-0,019686
1,162000	-0,006699
1,162500	0,011548
1,163000	0,032590
1,163500	0,047879
1,164000	0,050674
1,164500	0,038837
1,165000	0,019110
1,165500	-0,013111
1,166000	-0,056017
1,166500	-0,116514
1,167000	-0,175531
1,167500	-0,232575
1,168000	-0,301949
1,168500	-0,365240
1,169000	-0,424257
1,169500	-0,464697
1,170000	-0,488205
1,170500	-0,495768
1,171000	-0,469136
1,171500	-0,392693
1,172000	-0,288633
1,172500	-0,207752
1,173000	-0,158598
1,173500	-0,088074
1,174000	0,028152
1,174500	0,142240
1,175000	0,182516
1,175500	0,177749
1,176000	0,214737
1,176500	0,325209
1,177000	0,423516
1,177500	0,440120
1,178000	0,400830
1,178500	0,368116
1,179000	0,346087
1,179500	0,322086
1,180000	0,267179
1,180500	0,164269
1,181000	0,069579
1,181500	0,026508
1,182000	0,016809
1,182500	-0,012289
1,183000	-0,027413
1,183500	-0,010974
1,184000	0,015494
1,184500	0,028974
1,185000	0,016809
1,185500	-0,006535
1,186000	-0,036455
1,186500	-0,061935
1,187000	-0,076402
1,187500	-0,076073
1,188000	-0,061278
1,188500	-0,042537
1,189000	-0,037605
1,189500	-0,058483
1,190000	-0,112404
1,190500	-0,153831
1,191000	-0,167147
1,191500	-0,160900
1,192000	-0,125720
1,192500	-0,042044
1,193000	0,031440
1,193500	0,080757
1,194000	0,157693
1,194500	0,207833
1,195000	0,190572
1,195500	0,161639
1,196000	0,158515
1,196500	0,137144
1,197000	0,083716
1,197500	0,005137
1,198000	-0,059141
1,198500	-0,105171
1,199000	-0,154324
1,199500	-0,187860
1,200000	-0,185559
1,200500	-0,155146
1,201000	-0,100074
1,201500	-0,040400
1,202000	-0,023303
1,202500	-0,035961
1,203000	-0,036126
1,203500	-0,027577
1,204000	-0,047469
1,204500	-0,101718
1,205000	-0,111089
1,205500	-0,060949
1,206000	-0,034646
1,206500	-0,056017
1,207000	-0,045825
1,207500	0,030289
1,208000	0,099663
1,208500	0,142240
1,209000	0,167064
1,209500	0,185640
1,210000	0,213422
1,210500	0,222628
1,211000	0,238410
1,211500	0,283618
1,212000	0,291344
1,212500	0,234300
1,213000	0,169036
1,213500	0,150953
1,214000	0,149145
1,214500	0,124650
1,215000	0,095553
1,215500	0,070401
1,216000	0,044098
1,216500	0,024700
1,217000	0,014672
1,217500	0,012699
1,218000	0,011055
1,218500	0,011877
1,219000	0,000205
1,219500	-0,023632
1,220000	-0,049606
1,220500	-0,076402
1,221000	-0,090211
1,221500	-0,083800
1,222000	-0,079032
1,222500	-0,070648
1,223000	-0,039414
1,223500	0,015494
1,224000	0,063825
1,224500	0,079935
1,225000	0,100156
1,225500	0,104594
1,226000	0,092265
1,226500	0,075990
1,227000	0,062674
1,227500	0,056592
1,228000	0,056427
1,228500	0,063825
1,229000	0,063167
1,229500	0,055934
1,230000	0,043440
1,230500	0,016644
1,231000	-0,004727
1,231500	-0,024454
1,232000	-0,042701
1,232500	-0,067854
1,233000	-0,088896
1,233500	-0,099253
1,234000	-0,106486
1,234500	-0,105171
1,235000	-0,100896
1,235500	-0,096129
1,236000	-0,076566
1,236500	-0,032509
1,237000	0,016316
1,237500	0,085360
1,238000	0,137802
1,238500	0,125801
1,239000	0,039166
1,239500	-0,047469
1,240000	-0,087581
1,240500	-0,103527
1,241000	-0,115034
1,241500	-0,117829
1,242000	-0,121610
1,242500	-0,138542
1,243000	-0,159420
1,243500	-0,177997
1,244000	-0,194765
1,244500	-0,209067
1,245000	-0,207094
1,245500	-0,156461
1,246000	-0,093334
1,246500	-0,058154
1,247000	-0,003412
1,247500	0,138788
1,248000	0,267343
1,248500	0,293317
1,249000	0,277700
1,249500	0,276056
1,250000	0,262411
1,250500	0,215231
1,251000	0,163283
1,251500	0,131884
1,252000	0,119390
1,252500	0,144213
1,253000	0,139281
1,253500	0,104430
1,254000	0,055934
1,254500	-0,020837
1,255000	-0,101390
1,255500	-0,165832
1,256000	-0,204299
1,256500	-0,215971
1,257000	-0,198710
1,257500	-0,157119
1,258000	-0,111253
1,258500	-0,069169
1,259000	-0,012289
1,259500	0,060537
1,260000	0,127774
1,260500	0,179722
1,261000	0,215724
1,261500	0,227724
1,262000	0,199285
1,262500	0,163940
1,263000	0,140761
1,263500	0,118403
1,264000	0,082237
1,264500	0,038015
1,265000	-0,000781
1,265500	-0,019522
1,266000	-0,024618
1,266500	-0,040564
1,267000	-0,056346
1,267500	-0,049113
1,268000	-0,044674
1,268500	-0,053058
1,269000	-0,045661
1,269500	-0,021495
1,270000	0,013028
1,270500	0,053961
1,271000	0,076976
1,271500	0,071058
1,272000	0,051002
1,272500	0,031440
1,273000	0,009575
1,273500	-0,001439
1,274000	-0,008179
1,274500	-0,012618
1,275000	-0,008015
1,275500	0,015658
1,276000	0,034563
1,276500	0,038673
1,277000	0,023384
1,277500	0,005137
1,278000	-0,005056
1,278500	-0,024783
1,279000	-0,050757
1,279500	-0,066703
1,280000	-0,079197
1,280500	-0,083142
1,281000	-0,074100
1,281500	-0,067196
1,282000	-0,075251
1,282500	-0,087581
1,283000	-0,089882
1,283500	-0,100403
1,284000	-0,109774
1,284500	-0,118486
1,285000	-0,121281
1,285500	-0,107637
1,286000	-0,065716
1,286500	-0,034811
1,287000	-0,020344
1,287500	0,014178
1,288000	0,099991
1,288500	0,177585
1,289000	0,206189
1,289500	0,224601
1,290000	0,235122
1,290500	0,268494
1,291000	0,301372
1,291500	0,299728
1,292000	0,270138
1,292500	0,220327
1,293000	0,163776
1,293500	0,123828
1,294000	0,094895
1,294500	0,072045
1,295000	0,061523
1,295500	0,058236
1,296000	0,054948
1,296500	0,043933
1,297000	0,031768
1,297500	0,019603
1,298000	0,012206
1,298500	-0,000124
1,299000	-0,011960
1,299500	-0,026262
1,300000	-0,041058
1,300500	-0,054867
1,301000	-0,069497
1,301500	-0,088403
1,302000	-0,115199
1,302500	-0,143145
1,303000	-0,160571
1,303500	-0,172407
1,304000	-0,189011
1,304500	-0,215643
1,305000	-0,223698
1,305500	-0,216300
1,306000	-0,203149
1,306500	-0,197066
1,307000	-0,181284
1,307500	-0,106650
1,308000	-0,041058
1,308500	0,017959
1,309000	0,063661
1,309500	0,097854
1,310000	0,113472
1,310500	0,107718
1,311000	0,054290
1,311500	-0,007850
1,312000	-0,037605
1,312500	-0,030043
1,313000	-0,031194
1,313500	-0,042866
1,314000	-0,041879
1,314500	-0,004234
1,315000	0,031275
1,315500	0,076812
1,316000	0,151775
1,316500	0,174790
1,317000	0,178078
1,317500	0,203559
1,318000	0,180873
1,318500	0,103608
1,319000	0,052153
1,319500	0,044098
1,320000	0,023384
1,320500	-0,019686
1,321000	-0,044510
1,321500	-0,021330
1,322000	-0,005384
1,322500	0,007438
1,323000	0,044591
1,323500	0,095060
1,324000	0,105581
1,324500	0,103608
1,325000	0,123006
1,325500	0,146021
1,326000	0,148487
1,326500	0,119883
1,327000	0,079607
1,327500	0,042783
1,328000	0,006781
1,328500	-0,025605
1,329000	-0,037112
1,329500	-0,039907
1,330000	-0,030536
1,330500	0,001849
1,331000	0,055277
1,331500	0,096868
1,332000	0,088813
1,332500	0,059551
1,333000	0,043112
1,333500	0,059880
1,334000	0,099827
1,334500	0,094566
1,335000	0,051496
1,335500	0,013356
1,336000	-0,006042
1,336500	-0,018865
1,337000	-0,027577
1,337500	-0,052236
1,338000	-0,063086
1,338500	-0,053387
1,339000	-0,040729
1,339500	-0,055031
1,340000	-0,082649
1,340500	-0,109116
1,341000	-0,125720
1,341500	-0,124240
1,342000	-0,107308
1,342500	-0,097444
1,343000	-0,092677
1,343500	-0,064730
1,344000	-0,039578
1,344500	-0,046811
1,345000	-0,069169
1,345500	-0,079525
1,346000	-0,049113
1,346500	0,013356
1,347000	0,059386
1,347500	0,081086
1,348000	0,110348
1,348500	0,156871
1,349000	0,167557
1,349500	0,125965
1,350000	0,124650
1,350500	0,146679
1,351000	0,145364
1,351500	0,131226
1,352000	0,123664
1,352500	0,116431
1,353000	0,103608
1,353500	0,088155
1,354000	0,081086
1,354500	0,073360
1,355000	0,061523
1,355500	0,055112
1,356000	0,054619
1,356500	0,038180
1,357000	0,006123
1,357500	-0,003740
1,358000	-0,015905
1,358500	-0,063744
1,359000	-0,087909
1,359500	-0,083635
1,360000	-0,100403
1,360500	-0,111911
1,361000	-0,113883
1,361500	-0,124569
1,362000	-0,145940
1,362500	-0,167969
1,363000	-0,196573
1,363500	-0,228630
1,364000	-0,249014
1,364500	-0,242439
1,365000	-0,203149
1,365500	-0,124076
1,366000	-0,022481
1,366500	0,056920
1,367000	0,109526
1,367500	0,163611
1,368000	0,227231
1,368500	0,272768
1,369000	0,253534
1,369500	0,213587
1,370000	0,181366
1,370500	0,154734
1,371000	0,130897
1,371500	0,092101
1,372000	0,068757
1,372500	0,068921
1,373000	0,045906
1,373500	0,025521
1,374000	0,021412
1,374500	0,012041
1,375000	-0,015083
1,375500	-0,041386
1,376000	-0,041715
1,376500	-0,041058
1,377000	-0,048784
1,377500	-0,044017
1,378000	-0,032674
1,378500	-0,032509
1,379000	-0,017549
1,379500	0,006945
1,380000	0,010397
1,380500	-0,013440
1,381000	-0,029386
1,381500	-0,051743
1,382000	-0,069991
1,382500	-0,061278
1,383000	-0,098431
1,383500	-0,164845
1,384000	-0,195751
1,384500	-0,183586
1,385000	-0,115034
1,385500	-0,041222
1,386000	-0,013440
1,386500	-0,004234
1,387000	-0,008672
1,387500	-0,017056
1,388000	-0,021988
1,388500	-0,023796
1,389000	-0,025933
1,389500	0,005137
1,390000	0,047057
1,390500	0,029631
1,391000	-0,022646
1,391500	-0,016234
1,392000	0,043112
1,392500	0,122842
1,393000	0,201586
1,393500	0,293975
1,394000	0,332278
1,394500	0,294797
1,395000	0,255671
1,395500	0,206518
1,396000	0,169858
1,396500	0,132870
1,397000	0,101471
1,397500	0,061359
1,398000	0,026672
1,398500	0,007603
1,399000	0,001520
1,399500	0,014507
1,400000	0,027330
1,400500	0,040481
1,401000	0,057249
1,401500	0,079607
1,402000	0,092594
1,402500	0,093909
1,403000	0,094731
1,403500	0,090128
1,404000	0,082730
1,404500	0,064318
1,405000	0,029960
1,405500	-0,005384
1,406000	-0,037934
1,406500	-0,053880
1,407000	-0,065059
1,407500	-0,075909
1,408000	-0,053387
1,408500	-0,017549
1,409000	-0,000946
1,409500	-0,012453
1,410000	-0,039578
1,410500	-0,052401
1,411000	-0,041715
1,411500	-0,026755
1,412000	-0,009987
1,412500	-0,004727
1,413000	-0,015248
1,413500	-0,011631
1,414000	-0,000124
1,414500	0,008096
1,415000	0,013028
1,415500	0,028809
1,416000	0,078456
1,416500	0,110019
1,417000	0,099498
1,417500	0,066291
1,418000	0,035056
1,418500	0,014014
1,419000	0,002835
1,419500	0,000534
1,420000	-0,013768
1,420500	-0,059963
1,421000	-0,116349
1,421500	-0,163037
1,422000	-0,199039
1,422500	-0,202327
1,423000	-0,188518
1,423500	-0,178983
1,424000	-0,147091
1,424500	-0,068182
1,425000	0,022562
1,425500	0,099169
1,426000	0,155720
1,426500	0,168872
1,427000	0,156542
1,427500	0,133527
1,428000	0,096868
1,428500	0,069743
1,429000	0,083881
1,429500	0,110841
1,430000	0,129089
1,430500	0,134678
1,431000	0,105088
1,431500	0,072538
1,432000	0,072209
1,432500	0,089306
1,433000	0,082895
1,433500	0,047386
1,434000	0,026508
1,434500	0,023878
1,435000	0,005794
1,435500	-0,007686
1,436000	-0,000124
1,436500	0,021247
1,437000	0,038837
1,437500	0,053139
1,438000	0,058893
1,438500	0,058071
1,439000	0,063496
1,439500	0,070729
1,440000	0,062017
1,440500	0,029631
1,441000	-0,010645
1,441500	-0,043688
1,442000	-0,070977
1,442500	-0,104184
1,443000	-0,132295
1,443500	-0,141830
1,444000	-0,126870
1,444500	-0,110431
1,445000	-0,109445
1,445500	-0,117829
1,446000	-0,117665
1,446500	-0,109774
1,447000	-0,090047
1,447500	-0,073607
1,448000	-0,088074
1,448500	-0,107801
1,449000	-0,149721
1,449500	-0,225177
1,450000	-0,287153
1,450500	-0,316908
1,451000	-0,312470
1,451500	-0,282222
1,452000	-0,235534
1,452500	-0,181613
1,453000	-0,077717
1,453500	0,062017
1,454000	0,199449
1,454500	0,297756
1,455000	0,342799
1,455500	0,380610
1,456000	0,408228
1,456500	0,397049
1,457000	0,356937
1,457500	0,298742
1,458000	0,224272
1,458500	0,160817
1,459000	0,081908
1,459500	0,029631
1,460000	-0,000124
1,460500	-0,023961
1,461000	-0,044674
1,461500	-0,069826
1,462000	-0,122267
1,462500	-0,192463
1,463000	-0,236520
1,463500	-0,235041
1,464000	-0,194929
1,464500	-0,153831
1,465000	-0,126213
1,465500	-0,103856
1,466000	-0,057990
1,466500	-0,000288
1,467000	0,029960
1,467500	0,057249
1,468000	0,116431
1,468500	0,120047
1,469000	0,066291
1,469500	0,018946
1,470000	-0,007357
1,470500	-0,004069
1,471000	-0,008672
1,471500	-0,021002
1,472000	-0,047962
1,472500	-0,036783
1,473000	0,019768
1,473500	0,081086
1,474000	0,119554
1,474500	0,108540
1,475000	0,091443
1,475500	0,060044
1,476000	0,020097
1,476500	0,017137
1,477000	0,028974
1,477500	0,046071
1,478000	0,055934
1,478500	0,052317
1,479000	0,042947
1,479500	0,050180
1,480000	0,085525
1,480500	0,130240
1,481000	0,128267
1,481500	0,099498
1,482000	0,091936
1,482500	0,126459
1,483000	0,150460
1,483500	0,126294
1,484000	0,089635
1,484500	0,069908
1,485000	0,080100
1,485500	0,096868
1,486000	0,104594
1,486500	0,102293
1,487000	0,093580
1,487500	0,096046
1,488000	0,091114
1,488500	0,072209
1,489000	0,052975
1,489500	0,033906
1,490000	0,017959
1,490500	0,009247
1,491000	0,002013
1,491500	-0,005220
1,492000	-0,011796
1,492500	-0,011302
1,493000	-0,008015
1,493500	-0,005056
1,494000	-0,000288
1,494500	-0,000124
1,495000	-0,006699
1,495500	-0,019851
1,496000	-0,026262
1,496500	-0,033002
1,497000	-0,035797
1,497500	-0,037112
1,498000	-0,041058
1,498500	-0,048620
1,499000	-0,054373
1,499500	-0,049442
1,500000	-0,048948
1,500500	-0,059470
1,501000	-0,065223
1,501500	-0,063251
1,502000	-0,058154
1,502500	-0,061442
1,503000	-0,072128
1,503500	-0,068347
1,504000	-0,042701
1,504500	-0,031852
1,505000	-0,038098
1,505500	-0,039907
1,506000	-0,043359
1,506500	-0,058154
1,507000	-0,087087
1,507500	-0,119308
1,508000	-0,145282
1,508500	-0,155968
1,509000	-0,151036
1,509500	-0,141173
1,510000	-0,123911
1,510500	-0,104184
1,511000	-0,094156
1,511500	-0,090047
1,512000	-0,093499
1,512500	-0,096622
1,513000	-0,083635
1,513500	-0,035139
1,514000	0,056592
1,514500	0,186133
1,515000	0,244821
1,515500	0,228546
1,516000	0,189914
1,516500	0,148323
1,517000	0,090785
1,517500	0,005959
1,518000	-0,078046
1,518500	-0,144132
1,519000	-0,186545
1,519500	-0,204628
1,520000	-0,202491
1,520500	-0,175202
1,521000	-0,165503
1,521500	-0,183093
1,522000	-0,199532
1,522500	-0,198874
1,523000	-0,196244
1,523500	-0,174380
1,524000	-0,135255
1,524500	-0,049606
1,525000	0,048701
1,525500	0,096704
1,526000	0,101964
1,526500	0,082237
1,527000	0,065305
1,527500	0,055770
1,528000	0,046728
1,528500	0,063825
1,529000	0,160652
1,529500	0,235287
1,530000	0,218025
1,530500	0,189585
1,531000	0,189914
1,531500	0,211450
1,532000	0,229040
1,532500	0,223450
1,533000	0,204545
1,533500	0,172982
1,534000	0,157693
1,534500	0,145693
1,535000	0,129418
1,535500	0,132870
1,536000	0,130897
1,536500	0,095553
1,537000	0,067935
1,537500	0,077470
1,538000	0,078456
1,538500	0,048865
1,539000	0,024042
1,539500	0,018453
1,540000	0,020425
1,540500	0,017302
1,541000	0,015329
1,541500	0,012370
1,542000	-0,030865
1,542500	-0,095143
1,543000	-0,117336
1,543500	-0,081663
1,544000	-0,058483
1,544500	-0,058812
1,545000	-0,064894
1,545500	-0,102212
1,546000	-0,171750
1,546500	-0,220410
1,547000	-0,229780
1,547500	-0,201176
1,548000	-0,167475
1,548500	-0,121446
1,549000	-0,047140
1,549500	0,047879
1,550000	0,114129
1,550500	0,156871
1,551000	0,207833
1,551500	0,263398
1,552000	0,261754
1,552500	0,207340
1,553000	0,157200
1,553500	0,147830
1,554000	0,177420
1,554500	0,225423
1,555000	0,249753
1,555500	0,230190
1,556000	0,198134
1,556500	0,169201
1,557000	0,143391
1,557500	0,131062
1,558000	0,120869
1,558500	0,106238
1,559000	0,087004
1,559500	0,069250
1,560000	0,058729
1,560500	0,054455
1,561000	0,046564
1,561500	0,033741
1,562000	0,028809
1,562500	0,026015
1,563000	0,015494
1,563500	-0,008343
1,564000	-0,035304
1,564500	-0,044839
1,565000	-0,042208
1,565500	-0,042701
1,566000	-0,045661
1,566500	-0,048620
1,567000	-0,052072
1,567500	-0,062100
1,568000	-0,063744
1,568500	-0,056510
1,569000	-0,039085
1,569500	-0,021166
1,570000	-0,016399
1,570500	-0,026920
1,571000	-0,024125
1,571500	-0,019686
1,572000	-0,029550
1,572500	-0,036290
1,573000	-0,051907
1,573500	-0,066538
1,574000	-0,066703
1,574500	-0,095636
1,575000	-0,150379
1,575500	-0,195093
1,576000	-0,226986
1,576500	-0,266111
1,577000	-0,312634
1,577500	-0,332197
1,578000	-0,304250
1,578500	-0,239479
1,579000	-0,157448
1,579500	-0,065881
1,580000	0,041632
1,580500	0,171173
1,581000	0,273426
1,581500	0,291016
1,582000	0,247780
1,582500	0,192709
1,583000	0,130240
1,583500	0,046564
1,584000	-0,038427
1,584500	-0,098102
1,585000	-0,117171
1,585500	-0,115034
1,586000	-0,091033
1,586500	-0,057004
1,587000	-0,039414
1,587500	-0,035304
1,588000	-0,040400
1,588500	-0,034811
1,589000	-0,031523
1,589500	-0,025440
1,590000	-0,025111
1,590500	-0,012124
1,591000	0,000863
1,591500	-0,020180
1,592000	-0,018700
1,592500	0,006452
1,593000	-0,000617
1,593500	-0,004234
1,594000	0,015987
1,594500	0,022398
1,595000	0,038015
1,595500	0,081579
1,596000	0,119225
1,596500	0,127938
1,597000	0,114458
1,597500	0,096539
1,598000	0,127281
1,598500	0,153912
1,599000	0,134843
1,599500	0,109526
1,600000	0,076319
1,600500	0,026015
1,601000	-0,009659
1,601500	-0,030208
1,602000	-0,049277
1,602500	-0,061442
1,603000	-0,068018
1,603500	-0,069662
1,604000	-0,041715
1,604500	0,009082
1,605000	0,047879
1,605500	0,088319
1,606000	0,119883
1,606500	0,129746
1,607000	0,132541
1,607500	0,131884
1,608000	0,099169
1,608500	0,034234
1,609000	-0,016070
1,609500	-0,084293
1,610000	-0,152023
1,610500	-0,156790
1,611000	-0,139200
1,611500	-0,122761
1,612000	-0,115527
1,612500	-0,109938
1,613000	-0,086266
1,613500	-0,048455
1,614000	-0,025769
1,614500	-0,026427
1,615000	-0,041551
1,615500	-0,054867
1,616000	-0,044345
1,616500	-0,024783
1,617000	0,006123
1,617500	0,047057
1,618000	0,055441
1,618500	0,065962
1,619000	0,086018
1,619500	0,079935
1,620000	0,077634
1,620500	0,101800
1,621000	0,137308
1,621500	0,161474
1,622000	0,158022
1,622500	0,154241
1,623000	0,152433
1,623500	0,168707
1,624000	0,190901
1,624500	0,195668
1,625000	0,163447
1,625500	0,124321
1,626000	0,115280
1,626500	0,121362
1,627000	0,124815
1,627500	0,113307
1,628000	0,092922
1,628500	0,071387
1,629000	0,046893
1,629500	0,015494
1,630000	-0,028399
1,630500	-0,052401
1,631000	-0,067689
1,631500	-0,088896
1,632000	-0,114705
1,632500	-0,126542
1,633000	-0,125555
1,633500	-0,123254
1,634000	-0,131802
1,634500	-0,138214
1,635000	-0,115527
1,635500	-0,073114
1,636000	-0,010152
1,636500	0,056427
1,637000	0,122842
1,637500	0,137473
1,638000	0,104266
1,638500	0,082401
1,639000	0,058236
1,639500	0,023713
1,640000	0,009904
1,640500	0,001849
1,641000	4,062799E-5
1,641500	0,034563
1,642000	0,053961
1,642500	0,022891
1,643000	-0,026920
1,643500	-0,075909
1,644000	-0,093992
1,644500	-0,063086
1,645000	-0,053223
1,645500	-0,067360
1,646000	-0,071470
1,646500	-0,059963
1,647000	-0,041551
1,647500	-0,009001
1,648000	0,019439
1,648500	0,031768
1,649000	0,028152
1,649500	0,028645
1,650000	0,020754
1,650500	0,006616
1,651000	-0,003576
1,651500	-0,016727
1,652000	-0,018700
1,652500	-0,010974
1,653000	-0,010152
1,653500	-0,020837
1,654000	-0,017878
1,654500	-0,035797
1,655000	-0,066703
1,655500	-0,082320
1,656000	-0,081827
1,656500	-0,083471
1,657000	-0,082320
1,657500	-0,077881
1,658000	-0,054702
1,658500	-0,020180
1,659000	-0,001932
1,659500	0,024535
1,660000	0,069579
1,660500	0,117910
1,661000	0,143555
1,661500	0,149802
1,662000	0,161474
1,662500	0,142405
1,663000	0,069414
1,663500	0,028645
1,664000	0,020097
1,664500	0,012699
1,665000	-0,006371
1,665500	-0,026755
1,666000	-0,040236
1,666500	-0,039742
1,667000	-0,033495
1,667500	-0,028235
1,668000	-0,023632
1,668500	-0,021166
1,669000	-0,034646
1,669500	-0,018865
1,670000	0,037522
1,670500	0,065962
1,671000	0,090457
1,671500	0,139446
1,672000	0,192873
1,672500	0,187448
1,673000	0,133692
1,673500	0,095717
1,674000	0,093087
1,674500	0,081579
1,675000	0,032590
1,675500	-0,007686
1,676000	-0,015905
1,676500	-0,020837
1,677000	-0,024125
1,677500	-0,021330
1,678000	-0,019193
1,678500	-0,018865
1,679000	-0,020508
1,679500	-0,035797
1,680000	-0,057661
1,680500	-0,082484
1,681000	-0,118158
1,681500	-0,152680
1,682000	-0,185065
1,682500	-0,195422
1,683000	-0,174873
1,683500	-0,113883
1,684000	-0,025769
1,684500	0,079935
1,685000	0,189092
1,685500	0,238081
1,686000	0,248767
1,686500	0,275727
1,687000	0,292166
1,687500	0,250575
1,688000	0,185640
1,688500	0,105416
1,689000	0,030946
1,689500	-0,016070
1,690000	-0,021002
1,690500	-0,052729
1,691000	-0,095307
1,691500	-0,131638
1,692000	-0,166489
1,692500	-0,194436
1,693000	-0,218437
1,693500	-0,234548
1,694000	-0,259371
1,694500	-0,302277
1,695000	-0,368856
1,695500	-0,410612
1,696000	-0,370829
1,696500	-0,287318
1,697000	-0,189504
1,697500	-0,073772
1,698000	0,039659
1,698500	0,126787
1,699000	0,160981
1,699500	0,207669
1,700000	0,250575
1,700500	0,248109
1,701000	0,254192
1,701500	0,337703
1,702000	0,431900
1,702500	0,412173
1,703000	0,300879
1,703500	0,203230
1,704000	0,139939
1,704500	0,100485
1,705000	0,091936
1,705500	0,100813
1,706000	0,107389
1,706500	0,101800
1,707000	0,080922
1,707500	0,048701
1,708000	0,024206
1,708500	0,021905
1,709000	0,037522
1,709500	0,064976
1,710000	0,080593
1,710500	0,096539
1,711000	0,113965
1,711500	0,100485
1,712000	0,065962
1,712500	0,045577
1,713000	0,024535
1,713500	0,007603
1,714000	-0,014919
1,714500	-0,048620
1,715000	-0,062593
1,715500	-0,053058
1,716000	-0,031030
1,716500	-0,019358
1,717000	-0,023468
1,717500	-0,027742
1,718000	-0,030536
1,718500	-0,029386
1,719000	-0,015577
1,719500	0,003657
1,720000	0,017466
1,720500	0,031768
1,721000	0,056427
1,721500	0,082073
1,722000	0,057907
1,722500	0,001849
1,723000	-0,031523
1,723500	-0,046976
1,724000	-0,058154
1,724500	-0,054867
1,725000	-0,039578
1,725500	-0,035139
1,726000	-0,042537
1,726500	-0,074265
1,727000	-0,116678
1,727500	-0,135090
1,728000	-0,109280
1,728500	-0,078210
1,729000	-0,061278
1,729500	-0,026755
1,730000	0,020590
1,730500	0,069743
1,731000	0,121362
1,731500	0,164105
1,732000	0,157529
1,732500	0,135665
1,733000	0,124321
1,733500	0,068592
1,734000	0,001356
1,734500	-0,017714
1,735000	-0,007521
1,735500	-0,001932
1,736000	-0,005056
1,736500	-0,015083
1,737000	-0,013275
1,737500	0,003493
1,738000	0,033906
1,738500	0,051989
1,739000	0,038837
1,739500	-0,020837
1,740000	-0,086430
1,740500	-0,134597
1,741000	-0,172243
1,741500	-0,200190
1,742000	-0,219917
1,742500	-0,229451
1,743000	-0,222054
1,743500	-0,201998
1,744000	-0,172736
1,744500	-0,122432
1,745000	-0,068675
1,745500	-0,027249
1,746000	0,002178
1,746500	0,034234
1,747000	0,043440
1,747500	0,034399
1,748000	0,060702
1,748500	0,092265
1,749000	0,054455
1,749500	-0,025111
1,750000	-0,076731
1,750500	-0,086923
1,751000	-0,077553
1,751500	-0,062429
1,752000	-0,029221
1,752500	0,039495
1,753000	0,113800
1,753500	0,190407
1,754000	0,240054
1,754500	0,264384
1,755000	0,234300
1,755500	0,188270
1,756000	0,178735
1,756500	0,164105
1,757000	0,128103
1,757500	0,111334
1,758000	0,103772
1,758500	0,095388
1,759000	0,106074
1,759500	0,125637
1,760000	0,126787
1,760500	0,103772
1,761000	0,088813
1,761500	0,085854
1,762000	0,085854
1,762500	0,073524
1,763000	0,040974
1,763500	-0,004727
1,764000	-0,046154
1,764500	-0,078539
1,765000	-0,096293
1,765500	-0,122267
1,766000	-0,189997
1,766500	-0,259535
1,767000	-0,291756
1,767500	-0,298661
1,768000	-0,284852
1,768500	-0,226657
1,769000	-0,145282
1,769500	-0,078375
1,770000	-0,013275
1,770500	0,019439
1,771000	0,003493
1,771500	-0,016563
1,772000	0,019439
1,772500	0,070729
1,773000	0,103444
1,773500	0,147830
1,774000	0,162461
1,774500	0,129582
1,775000	0,092922
1,775500	0,080264
1,776000	0,050180
1,776500	0,019439
1,777000	-0,001932
1,777500	-0,007193
1,778000	0,001356
1,778500	-0,014755
1,779000	-0,056675
1,779500	-0,069169
1,780000	-0,023139
1,780500	0,017137
1,781000	0,027165
1,781500	0,040317
1,782000	0,033084
1,782500	0,012370
1,783000	-0,003412
1,783500	-0,005384
1,784000	0,004315
1,784500	0,024042
1,785000	0,025357
1,785500	0,020261
1,786000	0,022727
1,786500	0,007931
1,787000	-0,006535
1,787500	-0,006699
1,788000	-0,013275
1,788500	-0,030043
1,789000	-0,030701
1,789500	-0,026098
1,790000	-0,041879
1,790500	-0,069497
1,791000	-0,063744
1,791500	-0,034975
1,792000	-0,014590
1,792500	0,021247
1,793000	0,070894
1,793500	0,123171
1,794000	0,152761
1,794500	0,206025
1,795000	0,219012
1,795500	0,158186
1,796000	0,078949
1,796500	0,024864
1,797000	0,002178
1,797500	0,012534
1,798000	0,031933
1,798500	0,017631
1,799000	-0,003247
1,799500	-0,001110
1,800000	0,020754
1,800500	0,063825
1,801000	0,146350
1,801500	0,197147
1,802000	0,189750
1,802500	0,173639
1,803000	0,164433
1,803500	0,162625
1,804000	0,138952
1,804500	0,109691
1,805000	0,101800
1,805500	0,088813
1,806000	0,077634
1,806500	0,070072
1,807000	0,065140
1,807500	0,064483
1,808000	0,067770
1,808500	0,067277
1,809000	0,057249
1,809500	0,045413
1,810000	0,036865
1,810500	0,036536
1,811000	0,032097
1,811500	0,017137
1,812000	-0,003412
1,812500	-0,024289
1,813000	-0,041715
1,813500	-0,051085
1,814000	-0,058319
1,814500	-0,070319
1,815000	-0,083306
1,815500	-0,087416
1,816000	-0,089060
1,816500	-0,085115
1,817000	-0,090704
1,817500	-0,101390
1,818000	-0,100732
1,818500	-0,091526
1,819000	-0,087581
1,819500	-0,084128
1,820000	-0,064401
1,820500	-0,031523
1,821000	-0,013275
1,821500	-0,006535
1,822000	0,011877
1,822500	0,026508
1,823000	0,030618
1,823500	0,037029
1,824000	0,033084
1,824500	0,015987
1,825000	-0,018371
1,825500	-0,053716
1,826000	-0,089060
1,826500	-0,112075
1,827000	-0,123747
1,827500	-0,140351
1,828000	-0,186874
1,828500	-0,244576
1,829000	-0,259864
1,829500	-0,250987
1,830000	-0,219424
1,830500	-0,172407
1,831000	-0,097773
1,831500	0,015822
1,832000	0,078456
1,832500	0,050509
1,833000	-0,015083
1,833500	-0,056346
1,834000	-0,086759
1,834500	-0,114212
1,835000	-0,134268
1,835500	-0,194271
1,836000	-0,257069
1,836500	-0,259042
1,837000	-0,187367
1,837500	-0,085115
1,838000	-0,058812
1,838500	-0,049277
1,839000	0,013521
1,839500	0,074017
1,840000	0,074182
1,840500	0,038509
1,841000	0,006616
1,841500	0,011055
1,842000	0,063167
1,842500	0,121527
1,843000	0,152926
1,843500	0,174297
1,844000	0,188270
1,844500	0,220984
1,845000	0,277042
1,845500	0,294468
1,846000	0,275563
1,846500	0,246794
1,847000	0,201750
1,847500	0,174790
1,848000	0,164762
1,848500	0,175119
1,849000	0,187777
1,849500	0,211450
1,850000	0,250575
1,850500	0,297098
1,851000	0,305811
1,851500	0,271289
1,852000	0,224930
1,852500	0,183503
1,853000	0,144871
1,853500	0,099663
1,854000	0,045742
1,854500	0,008589
1,855000	0,011055
1,855500	0,040974
1,856000	0,062674
1,856500	0,054783
1,857000	0,027330
1,857500	-0,004234
1,858000	-0,017549
1,858500	-0,010974
1,859000	0,010397
1,859500	0,028645
1,860000	0,040317
1,860500	0,056427
1,861000	0,071716
1,861500	0,075661
1,862000	0,070894
1,862500	0,067770
1,863000	0,061688
1,863500	0,050509
1,864000	0,035385
1,864500	0,028316
1,865000	0,018124
1,865500	0,003986
1,866000	-0,025769
1,866500	-0,063908
1,867000	-0,078868
1,867500	-0,073278
1,868000	-0,079197
1,868500	-0,083800
1,869000	-0,086266
1,869500	-0,086101
1,870000	-0,068347
1,870500	-0,057990
1,871000	-0,054045
1,871500	-0,059141
1,872000	-0,037934
1,872500	-0,000781
1,873000	0,028152
1,873500	0,042783
1,874000	0,041961
1,874500	0,039495
1,875000	0,053139
1,875500	0,061852
1,876000	0,048865
1,876500	0,028809
1,877000	-0,001603
1,877500	-0,032180
1,878000	-0,052894
1,878500	-0,051414
1,879000	-0,040236
1,879500	-0,036290
1,880000	-0,051743
1,880500	-0,082320
1,881000	-0,115199
1,881500	-0,142652
1,882000	-0,157941
1,882500	-0,160900
1,883000	-0,141995
1,883500	-0,094156
1,884000	-0,061771
1,884500	-0,061771
1,885000	-0,071635
1,885500	-0,088731
1,886000	-0,109280
1,886500	-0,135583
1,887000	-0,146598
1,887500	-0,141337
1,888000	-0,133939
1,888500	-0,101883
1,889000	-0,042208
1,889500	0,049523
1,890000	0,128103
1,890500	0,173968
1,891000	0,180051
1,891500	0,149145
1,892000	0,116266
1,892500	0,066455
1,893000	-0,010809
1,893500	-0,090375
1,894000	-0,127364
1,894500	-0,127199
1,895000	-0,105828
1,895500	-0,066538
1,896000	-0,020180
1,896500	-0,009001
1,897000	-0,021166
1,897500	-0,025933
1,898000	0,016644
1,898500	0,044755
1,899000	0,040646
1,899500	0,044755
1,900000	0,049358
1,900500	0,082401
1,901000	0,103115
1,901500	0,081415
1,902000	0,073524
1,902500	0,120869
1,903000	0,168707
1,903500	0,168050
1,904000	0,131226
1,904500	0,113965
1,905000	0,117910
1,905500	0,088813
1,906000	0,033412
1,906500	-0,007521
1,907000	-0,029550
1,907500	-0,039085
1,908000	-0,028564
1,908500	-0,002425
1,909000	0,016151
1,909500	0,029631
1,910000	0,053304
1,910500	0,074017
1,911000	0,065305
1,911500	0,050838
1,912000	0,055770
1,912500	0,061852
1,913000	0,064318
1,913500	0,074675
1,914000	0,076812
1,914500	0,080593
1,915000	0,084867
1,915500	0,077963
1,916000	0,067935
1,916500	0,043440
1,917000	0,007274
1,917500	-0,019029
1,918000	-0,036290
1,918500	-0,045496
1,919000	-0,049442
1,919500	-0,024289
1,920000	-0,002754
1,920500	-0,011467
1,921000	-0,026755
1,921500	-0,045661
1,922000	-0,025605
1,922500	0,013685
1,923000	0,028152
1,923500	0,020261
1,924000	0,017137
1,924500	0,028152
1,925000	0,038673
1,925500	0,035385
1,926000	0,037193
1,926500	0,046564
1,927000	0,055770
1,927500	0,067935
1,928000	0,080429
1,928500	0,094566
1,929000	0,096704
1,929500	0,084703
1,930000	0,073853
1,930500	0,055277
1,931000	0,025028
1,931500	-0,000124
1,932000	-0,004234
1,932500	-0,007357
1,933000	-0,016399
1,933500	-0,019851
1,934000	-0,028399
1,934500	-0,030043
1,935000	-0,005384
1,935500	-0,000124
1,936000	-0,037605
1,936500	-0,066045
1,937000	-0,077388
1,937500	-0,082978
1,938000	-0,075580
1,938500	-0,066538
1,939000	-0,061935
1,939500	-0,061278
1,940000	-0,056675
1,940500	-0,074922
1,941000	-0,114705
1,941500	-0,153338
1,942000	-0,180956
1,942500	-0,180627
1,943000	-0,177503
1,943500	-0,161557
1,944000	-0,112075
1,944500	-0,024454
1,945000	0,095060
1,945500	0,174297
1,946000	0,217039
1,946500	0,245314
1,947000	0,258137
1,947500	0,237259
1,948000	0,187448
1,948500	0,156542
1,949000	0,185147
1,949500	0,209806
1,950000	0,149802
1,950500	0,039495
1,951000	-0,056839
1,951500	-0,124569
1,952000	-0,177503
1,952500	-0,200847
1,953000	-0,213341
1,953500	-0,237342
1,954000	-0,259864
1,954500	-0,261508
1,955000	-0,245398
1,955500	-0,213341
1,956000	-0,178490
1,956500	-0,105171
1,957000	-0,032674
1,957500	-0,002261
1,958000	0,029631
1,958500	0,067277
1,959000	0,128596
1,959500	0,171173
1,960000	0,153583
1,960500	0,136815
1,961000	0,145035
1,961500	0,186626
1,962000	0,225094
1,962500	0,238081
1,963000	0,228053
1,963500	0,202572
1,964000	0,175283
1,964500	0,140596
1,965000	0,122842
1,965500	0,131884
1,966000	0,109526
1,966500	0,084374
1,967000	0,058564
1,967500	0,031768
1,968000	-0,003412
1,968500	-0,034153
1,969000	-0,061935
1,969500	-0,083635
1,970000	-0,114705
1,970500	-0,145282
1,971000	-0,159585
1,971500	-0,174216
1,972000	-0,193450
1,972500	-0,184244
1,973000	-0,132624
1,973500	-0,093828
1,974000	-0,094814
1,974500	-0,123254
1,975000	-0,138214
1,975500	-0,141830
1,976000	-0,122267
1,976500	-0,093334
1,977000	-0,045167
1,977500	-0,020673
1,978000	-0,032345
1,978500	-0,068511
1,979000	-0,067032
1,979500	-0,032838
1,980000	-0,020673
1,980500	-0,008508
1,981000	-0,018536
1,981500	-0,036783
1,982000	-0,006206
1,982500	0,028809
1,983000	0,014672
1,983500	-0,007193
1,984000	0,009575
1,984500	0,032755
1,985000	0,030782
1,985500	0,020261
1,986000	0,017959
1,986500	0,052482
1,987000	0,109362
1,987500	0,146514
1,988000	0,179886
1,988500	0,225752
1,989000	0,254192
1,989500	0,272932
1,990000	0,246136
1,990500	0,179722
1,991000	0,147336
1,991500	0,117581
1,992000	0,071716
1,992500	0,073195
1,993000	0,123664
1,993500	0,143062
1,994000	0,128103
1,994500	0,141254
1,995000	0,181037
1,995500	0,195175
1,996000	0,167228
1,996500	0,125143
1,997000	0,105745
1,997500	0,108375
1,998000	0,107389
1,998500	0,107389
1,999000	0,096375
1,999500	0,076319
2,000000	0,060866
2,000500	0,049358
2,001000	0,034727
2,001500	0,020425
2,002000	0,008918
2,002500	0,010726
2,003000	0,011713
2,003500	-0,002754
2,004000	-0,022974
2,004500	-0,041386
2,005000	-0,046976
2,005500	-0,047962
2,006000	-0,047469
2,006500	-0,044839
2,007000	-0,039414
2,007500	-0,036948
2,008000	-0,041551
2,008500	-0,067689
2,009000	-0,090047
2,009500	-0,089225
2,010000	-0,054538
2,010500	-0,000288
2,011000	0,035878
2,011500	0,040810
2,012000	0,028974
2,012500	0,031440
2,013000	0,043276
2,013500	0,039002
2,014000	0,034399
2,014500	0,034399
2,015000	0,017631
2,015500	-0,009001
2,016000	-0,019522
2,016500	-0,009165
2,017000	0,018946
2,017500	0,013850
2,018000	-0,039578
2,018500	-0,078539
2,019000	-0,080841
2,019500	-0,083635
2,020000	-0,094650
2,020500	-0,094814
2,021000	-0,079032
2,021500	-0,057168
2,022000	-0,043688
2,022500	-0,028235
2,023000	-0,044510
2,023500	-0,080019
2,024000	-0,095471
2,024500	-0,089553
2,025000	-0,110102
2,025500	-0,128679
2,026000	-0,093499
2,026500	-0,028235
2,027000	0,044098
2,027500	0,107225
2,028000	0,144706
2,028500	0,128431
2,029000	0,062510
2,029500	0,007438
2,030000	-0,042537
2,030500	-0,102212
2,031000	-0,142652
2,031500	-0,132460
2,032000	-0,113390
2,032500	-0,091526
2,033000	-0,057497
2,033500	-0,014755
2,034000	0,039988
2,034500	0,065633
2,035000	0,070236
2,035500	0,044755
2,036000	-0,021824
2,036500	-0,097444
2,037000	-0,151201
2,037500	-0,194271
2,038000	-0,234219
2,038500	-0,242110
2,039000	-0,176846
2,039500	-0,052894
2,040000	0,068099
2,040500	0,138788
2,041000	0,144706
2,041500	0,141583
2,042000	0,175941
2,042500	0,211121
2,043000	0,181859
2,043500	0,154899
2,044000	0,176598
2,044500	0,204381
2,045000	0,184818
2,045500	0,106896
2,046000	0,022069
2,046500	-0,019851
2,047000	-0,031523
2,047500	-0,048784
2,048000	-0,078375
2,048500	-0,111746
2,049000	-0,122925
2,049500	-0,089389
2,050000	-0,038427
2,050500	0,022891
2,051000	0,074182
2,051500	0,084045
2,052000	0,071880
2,052500	0,042947
2,053000	-0,021495
2,053500	-0,065388
2,054000	-0,060456
2,054500	-0,044839
2,055000	-0,040400
2,055500	-0,035468
2,056000	-0,025769
2,056500	-0,031852
2,057000	-0,040236
2,057500	-0,033495
2,058000	-0,000946
2,058500	0,044098
2,059000	0,058400
2,059500	0,063989
2,060000	0,076319
2,060500	0,091936
2,061000	0,121034
2,061500	0,198134
2,062000	0,258137
2,062500	0,250739
2,063000	0,233971
2,063500	0,205860
2,064000	0,160159
2,064500	0,130404
2,065000	0,099991
2,065500	0,069250
2,066000	0,044591
2,066500	0,017959
2,067000	-0,005220
2,067500	-0,033824
2,068000	-0,045003
2,068500	-0,040893
2,069000	-0,053058
2,069500	-0,080347
2,070000	-0,108623
2,070500	-0,130487
2,071000	-0,154817
2,071500	-0,183257
2,072000	-0,207423
2,072500	-0,212519
2,073000	-0,202820
2,073500	-0,193285
2,074000	-0,170763
2,074500	-0,127364
2,075000	-0,077881
2,075500	-0,045332
2,076000	0,012534
2,076500	0,118897
2,077000	0,209641
2,077500	0,257808
2,078000	0,264384
2,078500	0,235451
2,079000	0,198463
2,079500	0,175941
2,080000	0,159502
2,080500	0,144049
2,081000	0,117910
2,081500	0,097525
2,082000	0,090128
2,082500	0,087826
2,083000	0,094731
2,083500	0,102622
2,084000	0,086182
2,084500	0,071716
2,085000	0,069250
2,085500	0,068592
2,086000	0,061688
2,086500	0,057742
2,087000	0,049358
2,087500	0,041961
2,088000	0,042618
2,088500	0,046564
2,089000	0,051002
2,089500	0,044262
2,090000	0,009411
2,090500	-0,028399
2,091000	-0,060949
2,091500	-0,084128
2,092000	-0,097937
2,092500	-0,104842
2,093000	-0,112404
2,093500	-0,120459
2,094000	-0,128679
2,094500	-0,127857
2,095000	-0,138871
2,095500	-0,163037
2,096000	-0,182435
2,096500	-0,183915
2,097000	-0,178654
2,097500	-0,181449
2,098000	-0,176517
2,098500	-0,140679
2,099000	-0,082320
2,099500	0,002671
2,100000	0,095882
2,100500	0,156707
2,101000	0,205203
2,101500	0,265864
2,102000	0,275563
2,102500	0,192544
2,103000	0,106238
2,103500	0,043769
2,104000	-0,007028
2,104500	-0,021166
2,105000	-0,003412
2,105500	0,020918
2,106000	0,049194
2,106500	0,081086
2,107000	0,105581
2,107500	0,101471
2,108000	0,079113
2,108500	0,075332
2,109000	0,068921
2,109500	0,028809
2,110000	-0,022974
2,110500	-0,053387
2,111000	-0,052401
2,111500	-0,033495
2,112000	0,004644
2,112500	0,010562
2,113000	-0,016234
2,113500	-0,024947
2,114000	-0,009659
2,114500	0,002342
2,115000	-0,013111
2,115500	-0,045661
2,116000	-0,079690
2,116500	-0,107143
2,117000	-0,120295
2,117500	-0,121939
2,118000	-0,101225
2,118500	-0,064073
2,119000	-0,027413
2,119500	0,000205
2,120000	0,030124
2,120500	0,042783
2,121000	0,048208
2,121500	0,103115
2,122000	0,170351
2,122500	0,208491
2,123000	0,214409
2,123500	0,199120
2,124000	0,148323
2,124500	0,075990
2,125000	0,010562
2,125500	-0,027906
2,126000	-0,073607
2,126500	-0,134761
2,127000	-0,198710
2,127500	-0,264632
2,128000	-0,305401
2,128500	-0,332032
2,129000	-0,324964
2,129500	-0,276632
2,130000	-0,187860
2,130500	-0,079690
2,131000	0,021083
2,131500	0,085196
2,132000	0,098183
2,132500	0,099334
2,133000	0,106403
2,133500	0,109362
2,134000	0,119061
2,134500	0,124321
2,135000	0,127281
2,135500	0,101964
2,136000	0,047550
2,136500	-0,004562
2,137000	-0,026427
2,137500	-0,048620
2,138000	-0,081991
2,138500	-0,106650
2,139000	-0,130323
2,139500	-0,165174
2,140000	-0,188847
2,140500	-0,173394
2,141000	-0,142652
2,141500	-0,120788
2,142000	-0,085444
2,142500	-0,023468
2,143000	0,053468
2,143500	0,146843
2,144000	0,240383
2,144500	0,271289
2,145000	0,240218
2,145500	0,216710
2,146000	0,207504
2,146500	0,153090
2,147000	0,091443
2,147500	0,035549
2,148000	0,007274
2,148500	0,008753
2,149000	0,026837
2,149500	0,036371
2,150000	0,041468
2,150500	0,044262
2,151000	0,029631
2,151500	0,021083
2,152000	0,036700
2,152500	0,045906
2,153000	0,039824
2,153500	0,057414
2,154000	0,067935
2,154500	0,043112
2,155000	0,019603
2,155500	0,047714
2,156000	0,095882
2,156500	0,117581
2,157000	0,104101
2,157500	0,066784
2,158000	0,044591
2,158500	0,017795
2,159000	-0,013604
2,159500	-0,016399
2,160000	-0,010974
2,160500	-0,005384
2,161000	-0,019686
2,161500	-0,027249
2,162000	-0,058812
2,162500	-0,110760
2,163000	-0,144461
2,163500	-0,127199
2,164000	-0,094814
2,164500	-0,064566
2,165000	-0,030372
2,165500	0,015987
2,166000	0,066455
2,166500	0,090950
2,167000	0,086511
2,167500	0,076812
2,168000	0,071716
2,168500	0,049358
2,169000	-0,008508
2,169500	-0,075744
2,170000	-0,099417
2,170500	-0,095143
2,171000	-0,103362
2,171500	-0,107965
2,172000	-0,083471
2,172500	-0,051579
2,173000	-0,011302
2,173500	0,029303
2,174000	0,086511
2,174500	0,153419
2,175000	0,179064
2,175500	0,165748
2,176000	0,164269
2,176500	0,154570
2,177000	0,125965
2,177500	0,094731
2,178000	0,062510
2,178500	0,035385
2,179000	0,025686
2,179500	0,011055
2,180000	-0,007850
2,180500	-0,024947
2,181000	-0,051743
2,181500	-0,068347
2,182000	-0,063086
2,182500	-0,050592
2,183000	-0,048455
2,183500	-0,014426
2,184000	0,039166
2,184500	0,055934
2,185000	0,044755
2,185500	0,037522
2,186000	0,038015
2,186500	0,065633
2,187000	0,113965
2,187500	0,114951
2,188000	0,051331
2,188500	-0,021166
2,189000	-0,083306
2,189500	-0,150214
2,190000	-0,246713
2,190500	-0,362774
2,191000	-0,451546
2,191500	-0,483109
2,192000	-0,471437
2,192500	-0,427380
2,193000	-0,352910
2,193500	-0,280084
2,194000	-0,221889
2,194500	-0,162872
2,195000	-0,052729
2,195500	0,076812
2,196000	0,207669
2,196500	0,337046
2,197000	0,431571
2,197500	0,474971
2,198000	0,449490
2,198500	0,379459
2,199000	0,299893
2,199500	0,247945
2,200000	0,226081
2,200500	0,203723
2,201000	0,148323
2,201500	0,082073
2,202000	0,036865
2,202500	0,001191
2,203000	-0,026755
2,203500	-0,036783
2,204000	-0,033495
2,204500	-0,029221
2,205000	-0,013933
2,205500	0,021083
2,206000	0,033577
2,206500	0,028481
2,207000	0,028974
2,207500	0,036371
2,208000	0,067606
2,208500	0,088813
2,209000	0,075661
2,209500	0,096375
2,210000	0,138952
2,210500	0,126459
2,211000	0,114951
2,211500	0,124157
2,212000	0,122513
2,212500	0,098512
2,213000	0,074839
2,213500	0,057907
2,214000	0,039659
2,214500	0,019932
2,215000	0,001027
2,215500	-0,018536
2,216000	-0,035468
2,216500	-0,061442
2,217000	-0,100568
2,217500	-0,133282
2,218000	-0,161064
2,218500	-0,187203
2,219000	-0,214163
2,219500	-0,255261
2,220000	-0,299976
2,220500	-0,326279
2,221000	-0,330553
2,221500	-0,306552
2,222000	-0,283537
2,222500	-0,226657
2,223000	-0,107143
2,223500	0,022069
2,224000	0,081744
2,224500	0,093251
2,225000	0,076976
2,225500	0,018617
2,226000	-0,028892
2,226500	-0,056510
2,227000	-0,074922
2,227500	-0,087416
2,228000	-0,100239
2,228500	-0,113719
2,229000	-0,110596
2,229500	-0,072785
2,230000	-0,016892
2,230500	-0,002261
2,231000	-0,026591
2,231500	-0,068511
2,232000	-0,129172
2,232500	-0,172407
2,233000	-0,199696
2,233500	-0,223205
2,234000	-0,193943
2,234500	-0,115034
2,235000	0,019439
2,235500	0,195504
2,236000	0,334251
2,236500	0,370253
2,237000	0,398857
2,237500	0,494205
2,238000	0,566538
2,238500	0,545824
2,239000	0,446531
2,239500	0,325538
2,240000	0,220162
2,240500	0,159008
2,241000	0,135665
2,241500	0,138788
2,242000	0,130075
2,242500	0,111828
2,243000	0,106567
2,243500	0,103937
2,244000	0,104430
2,244500	0,110019
2,245000	0,113143
2,245500	0,093909
2,246000	0,058564
2,246500	0,018124
2,247000	-0,027742
2,247500	-0,061607
2,248000	-0,070977
2,248500	-0,062757
2,249000	-0,025605
2,249500	0,020097
2,250000	0,025028
2,250500	-0,002261
2,251000	-0,039578
2,251500	-0,066538
2,252000	-0,073936
2,252500	-0,067196
2,253000	-0,063086
2,253500	-0,065059
2,254000	-0,061278
2,254500	-0,050592
2,255000	-0,029550
2,255500	-0,001932
2,256000	0,011713
2,256500	-0,000946
2,257000	-0,028071
2,257500	-0,044674
2,258000	-0,044017
2,258500	-0,039907
2,259000	-0,040893
2,259500	-0,046811
2,260000	-0,075580
2,260500	-0,129172
2,261000	-0,180134
2,261500	-0,201834
2,262000	-0,182435
2,262500	-0,140679
2,263000	-0,079032
2,263500	-0,033002
2,264000	0,002835
2,264500	0,042125
2,265000	0,070236
2,265500	0,035878
2,266000	-0,012124
2,266500	-0,048291
2,267000	-0,087416
2,267500	-0,141008
2,268000	-0,187696
2,268500	-0,185394
2,269000	-0,142488
2,269500	-0,092841
2,270000	-0,032674
2,270500	0,037029
2,271000	0,087333
2,271500	0,115609
2,272000	0,136980
2,272500	0,112978
2,273000	0,042290
2,273500	-0,016563
2,274000	-0,029057
2,274500	-0,008672
2,275000	0,007931
2,275500	0,012370
2,276000	0,019768
2,276500	0,023056
2,277000	0,033741
2,277500	0,038015
2,278000	0,038015
2,278500	0,042947
2,279000	0,043605
2,279500	0,048701
2,280000	0,076648
2,280500	0,057414
2,281000	0,013685
2,281500	0,010233
2,282000	0,047221
2,282500	0,060702
2,283000	0,050509
2,283500	0,028152
2,284000	-0,024125
2,284500	-0,064401
2,285000	-0,070319
2,285500	-0,068675
2,286000	-0,063908
2,286500	-0,069004
2,287000	-0,091197
2,287500	-0,115363
2,288000	-0,141830
2,288500	-0,138049
2,289000	-0,071635
2,289500	0,007274
2,290000	0,061523
2,290500	0,107553
2,291000	0,150953
2,291500	0,167721
2,292000	0,168379
2,292500	0,195832
2,293000	0,201422
2,293500	0,177749
2,294000	0,143227
2,294500	0,109033
2,295000	0,072373
2,295500	0,029467
2,296000	0,003986
2,296500	-0,007521
2,297000	-0,020508
2,297500	-0,013768
2,298000	0,015494
2,298500	0,030453
2,299000	0,043112
2,299500	0,047057
2,300000	0,060537
2,300500	0,053304
2,301000	0,029796
2,301500	0,016151
2,302000	0,018453
2,302500	0,006616
2,303000	-0,022810
2,303500	-0,074265
2,304000	-0,119473
2,304500	-0,143803
2,305000	-0,163201
2,305500	-0,156297
2,306000	-0,113883
2,306500	-0,060127
2,307000	0,009904
2,307500	0,086511
2,308000	0,119390
2,308500	0,092922
2,309000	0,071880
2,309500	0,098183
2,310000	0,171831
2,310500	0,235122
2,311000	0,248767
2,311500	0,208491
2,312000	0,152597
2,312500	0,106731
2,313000	0,061359
2,313500	0,021083
2,314000	-0,003740
2,314500	-0,010645
2,315000	-0,011631
2,315500	-0,023139
2,316000	-0,035468
2,316500	-0,037770
2,317000	-0,039578
2,317500	-0,038427
2,318000	-0,029221
2,318500	-0,012289
2,319000	-0,012453
2,319500	-0,015741
2,320000	-0,005056
2,320500	0,021740
2,321000	0,055441
2,321500	0,090457
2,322000	0,109197
2,322500	0,112650
2,323000	0,117910
2,323500	0,092758
2,324000	0,040810
2,324500	-0,003083
2,325000	-0,005056
2,325500	0,024206
2,326000	0,067277
2,326500	0,072702
2,327000	0,039824
2,327500	0,003822
2,328000	-0,015741
2,328500	-0,020837
2,329000	-0,018371
2,329500	-0,021988
2,330000	-0,029550
2,330500	-0,035961
2,331000	-0,043359
2,331500	-0,040236
2,332000	-0,044839
2,332500	-0,069497
2,333000	-0,103856
2,333500	-0,154653
2,334000	-0,200847
2,334500	-0,234876
2,335000	-0,258878
2,335500	-0,264303
2,336000	-0,237671
2,336500	-0,198874
2,337000	-0,136570
2,337500	-0,066867
2,338000	-0,026098
2,338500	-0,012618
2,339000	-0,006371
2,339500	0,022891
2,340000	0,044591
2,340500	0,017137
2,341000	-0,021659
2,341500	-0,055853
2,342000	-0,092841
2,342500	-0,135419
2,343000	-0,162215
2,343500	-0,162544
2,344000	-0,132953
2,344500	-0,065881
2,345000	-0,011302
2,345500	0,021576
2,346000	0,069579
2,346500	0,150131
2,347000	0,203723
2,347500	0,206025
2,348000	0,200435
2,348500	0,201915
2,349000	0,170680
2,349500	0,108869
2,350000	0,074839
2,350500	0,086511
2,351000	0,092758
2,351500	0,074839
2,352000	0,065305
2,352500	0,067606
2,353000	0,096868
2,353500	0,130075
2,354000	0,136651
2,354500	0,118568
2,355000	0,090457
2,355500	0,084703
2,356000	0,085854
2,356500	0,084210
2,357000	0,074510
2,357500	0,061688
2,358000	0,044262
2,358500	-0,014590
2,359000	-0,092184
2,359500	-0,163859
2,360000	-0,210546
2,360500	-0,226821
2,361000	-0,217944
2,361500	-0,192792
2,362000	-0,160571
2,362500	-0,142652
2,363000	-0,152845
2,363500	-0,180134
2,364000	-0,192134
2,364500	-0,196902
2,365000	-0,200025
2,365500	-0,146762
2,366000	-0,080019
2,366500	-0,017878
2,367000	0,027330
2,367500	0,073853
2,368000	0,140268
2,368500	0,207011
2,369000	0,238903
2,369500	0,251397
2,370000	0,246630
2,370500	0,184982
2,371000	0,082073
2,371500	0,009575
2,372000	-0,022481
2,372500	-0,049606
2,373000	-0,084786
2,373500	-0,124733
2,374000	-0,160571
2,374500	-0,184408
2,375000	-0,207423
2,375500	-0,237836
2,376000	-0,256247
2,376500	-0,253946
2,377000	-0,223040
2,377500	-0,147748
2,378000	-0,027906
2,378500	0,087991
2,379000	0,159337
2,379500	0,231012
2,380000	0,334580
2,380500	0,422694
2,381000	0,440284
2,381500	0,410694
2,382000	0,339511
2,382500	0,259945
2,383000	0,206189
2,383500	0,167886
2,384000	0,132212
2,384500	0,123500
2,385000	0,144706
2,385500	0,144871
2,386000	0,123664
2,386500	0,108540
2,387000	0,083716
2,387500	0,046893
2,388000	0,025357
2,388500	0,009904
2,389000	-0,003247
2,389500	-0,013111
2,390000	-0,012124
2,390500	-0,009165
2,391000	-0,005878
2,391500	-0,002261
2,392000	0,009740
2,392500	0,045249
2,393000	0,087826
2,393500	0,099663
2,394000	0,071223
2,394500	0,043605
2,395000	0,022069
2,395500	0,007767
2,396000	0,004479
2,396500	0,003328
2,397000	-0,012946
2,397500	-0,029879
2,398000	-0,036455
2,398500	-0,030372
2,399000	-0,022810
2,399500	-0,012453
2,400000	-0,017221
2,400500	-0,019522
2,401000	-0,036783
2,401500	-0,063251
2,402000	-0,090375
2,402500	-0,118486
2,403000	-0,132295
2,403500	-0,135583
2,404000	-0,124898
2,404500	-0,102705
2,405000	-0,053058
2,405500	0,015494
2,406000	0,089141
2,406500	0,130075
2,407000	0,148487
2,407500	0,171995
2,408000	0,194024
2,408500	0,187284
2,409000	0,156542
2,409500	0,115773
2,410000	0,065633
2,410500	0,018288
2,411000	0,001685
2,411500	0,018124
2,412000	0,015494
2,412500	-0,009330
2,413000	-0,036948
2,413500	-0,047304
2,414000	-0,066703
2,414500	-0,088074
2,415000	-0,096622
2,415500	-0,094321
2,416000	-0,089225
2,416500	-0,088896
2,417000	-0,097115
2,417500	-0,091362
2,418000	-0,064073
2,418500	-0,018536
2,419000	0,014507
2,419500	0,024864
2,420000	0,039659
2,420500	0,072702
2,421000	0,096539
2,421500	0,064154
2,422000	0,011055
2,422500	-0,008837
2,423000	0,018617
2,423500	0,025686
2,424000	-0,024125
2,424500	-0,114541
2,425000	-0,187038
2,425500	-0,215971
2,426000	-0,235863
2,426500	-0,233068
2,427000	-0,236356
2,427500	-0,253288
2,428000	-0,263481
2,428500	-0,254439
2,429000	-0,303264
2,429500	-0,368528
2,430000	-0,378720
2,430500	-0,332690
2,431000	-0,297674
2,431500	-0,295537
2,432000	-0,260193
2,432500	-0,143474
2,433000	0,009082
2,433500	0,129911
2,434000	0,188435
2,434500	0,253534
2,435000	0,319784
2,435500	0,334580
2,436000	0,294139
2,436500	0,256822
2,437000	0,211943
2,437500	0,153255
2,438000	0,106074
2,438500	0,072702
2,439000	0,070072
2,439500	0,092922
2,440000	0,141418
2,440500	0,198956
2,441000	0,229697
2,441500	0,239890
2,442000	0,253534
2,442500	0,254027
2,443000	0,217368
2,443500	0,163283
2,444000	0,123993
2,444500	0,114787
2,445000	0,117253
2,445500	0,138459
2,446000	0,166242
2,446500	0,121198
2,447000	0,047221
2,447500	0,013028
2,448000	0,012534
2,448500	0,027001
2,449000	0,033906
2,449500	0,031933
2,450000	0,030946
2,450500	0,031933
2,451000	0,040317
2,451500	0,068921
2,452000	0,080757
2,452500	0,061852
2,453000	0,036536
2,453500	0,010397
2,454000	-0,013768
2,454500	-0,029550
2,455000	-0,064237
2,455500	-0,095636
2,456000	-0,107472
2,456500	-0,098431
2,457000	-0,097773
2,457500	-0,098431
2,458000	-0,072128
2,458500	-0,056346
2,459000	-0,088238
2,459500	-0,125227
2,460000	-0,137392
2,460500	-0,126706
2,461000	-0,107472
2,461500	-0,101718
2,462000	-0,096951
2,462500	-0,081005
2,463000	-0,050099
2,463500	0,022234
2,464000	0,094566
2,464500	0,146021
2,465000	0,207175
2,465500	0,267836
2,466000	0,288879
2,466500	0,261261
2,467000	0,243177
2,467500	0,232327
2,468000	0,213915
2,468500	0,177420
2,469000	0,151775
2,469500	0,132212
2,470000	0,101307
2,470500	0,068592
2,471000	0,052811
2,471500	0,045413
2,472000	0,038344
2,472500	0,036865
2,473000	0,035714
2,473500	0,022727
2,474000	0,008096
2,474500	0,010562
2,475000	0,014178
2,475500	0,007110
2,476000	-0,006042
2,476500	-0,017714
2,477000	-0,031687
2,477500	-0,051250
2,478000	-0,063579
2,478500	-0,057332
2,479000	-0,048620
2,479500	-0,044674
2,480000	-0,039907
2,480500	-0,035633
2,481000	-0,029386
2,481500	-0,016399
2,482000	-0,003083
2,482500	-0,008179
2,483000	-0,014262
2,483500	-0,019686
2,484000	-0,061278
2,484500	-0,080676
2,485000	-0,065716
2,485500	-0,068511
2,486000	-0,057497
2,486500	-0,035797
2,487000	-0,044674
2,487500	-0,073278
2,488000	-0,093663
2,488500	-0,097444
2,489000	-0,092019
2,489500	-0,060456
2,490000	-0,031687
2,490500	-0,010481
2,491000	-0,003905
2,491500	-0,011960
2,492000	-0,012453
2,492500	-0,004398
2,493000	-0,013768
2,493500	-0,040071
2,494000	-0,068347
2,494500	-0,086430
2,495000	-0,080512
2,495500	-0,050921
2,496000	-0,046976
2,496500	-0,070484
2,497000	-0,096293
2,497500	-0,101061
2,498000	-0,071470
2,498500	-0,014426
2,499000	0,026179
2,499500	0,065798
2,500000	0,153583
2,500500	0,223450
2,501000	0,247452
2,501500	0,229533
2,502000	0,162789
2,502500	0,101800
2,503000	0,055441
2,503500	0,016644
2,504000	-0,016234
2,504500	-0,005220
2,505000	0,007603
2,505500	-0,015577
2,506000	-0,051743
2,506500	-0,098102
2,507000	-0,144789
2,507500	-0,177175
2,508000	-0,189175
2,508500	-0,194436
2,509000	-0,189997
2,509500	-0,202984
2,510000	-0,228136
2,510500	-0,246384
2,511000	-0,243589
2,511500	-0,179969
2,512000	-0,066538
2,512500	0,032919
2,513000	0,119718
2,513500	0,192544
2,514000	0,258466
2,514500	0,283454
2,515000	0,268658
2,515500	0,249753
2,516000	0,235944
2,516500	0,248767
2,517000	0,266028
2,517500	0,217203
2,518000	0,144049
2,518500	0,119225
2,519000	0,136651
2,519500	0,166077
2,520000	0,166242
2,520500	0,121034
2,521000	0,080100
2,521500	0,007274
2,522000	-0,088896
2,522500	-0,119802
2,523000	-0,060620
2,523500	0,027987
2,524000	0,102457
2,524500	0,135829
2,525000	0,124157
2,525500	0,098183
2,526000	0,071880
2,526500	0,038509
2,527000	-0,007357
2,527500	-0,049935
2,528000	-0,051743
2,528500	-0,047469
2,529000	-0,062757
2,529500	-0,093663
2,530000	-0,115856
2,530500	-0,123747
2,531000	-0,125062
2,531500	-0,146269
2,532000	-0,157448
2,532500	-0,161229
2,533000	-0,165338
2,533500	-0,159585
2,534000	-0,136570
2,534500	-0,093992
2,535000	-0,047798
2,535500	-0,017221
2,536000	0,025850
2,536500	0,084867
2,537000	0,134021
2,537500	0,175448
2,538000	0,191229
2,538500	0,156049
2,539000	0,121034
2,539500	0,131555
2,540000	0,137637
2,540500	0,100320
2,541000	0,059715
2,541500	0,057578
2,542000	0,087662
2,542500	0,116924
2,543000	0,107389
2,543500	0,076154
2,544000	0,056099
2,544500	0,050509
2,545000	0,074675
2,545500	0,109855
2,546000	0,114951
2,546500	0,127445
2,547000	0,150460
2,547500	0,161803
2,548000	0,162296
2,548500	0,172160
2,549000	0,195339
2,549500	0,195668
2,550000	0,158680
2,550500	0,116759
2,551000	0,087662
2,551500	0,081251
2,552000	0,076319
2,552500	0,070565
2,553000	0,077634
2,553500	0,093416
2,554000	0,103115
2,554500	0,092429
2,555000	0,077963
2,555500	0,062510
2,556000	0,047714
2,556500	0,038673
2,557000	0,034563
2,557500	0,031604
2,558000	0,025850
2,558500	0,020590
2,559000	0,016809
2,559500	0,018617
2,560000	0,019439
2,560500	0,019110
2,561000	0,008425
2,561500	-0,006699
2,562000	-0,013111
2,562500	-0,012124
2,563000	-0,006535
2,563500	0,003822
2,564000	0,018288
2,564500	0,029796
2,565000	0,042783
2,565500	0,052975
2,566000	0,059386
2,566500	0,057249
2,567000	0,052153
2,567500	0,047057
2,568000	0,041468
2,568500	0,031111
2,569000	0,018453
2,569500	0,013521
2,570000	-0,003412
2,570500	-0,032016
2,571000	-0,062593
2,571500	-0,089225
2,572000	-0,100074
2,572500	-0,103856
2,573000	-0,111746
2,573500	-0,129172
2,574000	-0,140022
2,574500	-0,140022
2,575000	-0,133117
2,575500	-0,126049
2,576000	-0,127857
2,576500	-0,135090
2,577000	-0,125391
2,577500	-0,110431
2,578000	-0,082156
2,578500	-0,060456
2,579000	-0,050921
2,579500	-0,040071
2,580000	-0,036619
2,580500	-0,044510
2,581000	-0,075909
2,581500	-0,105335
2,582000	-0,111746
2,582500	-0,100239
2,583000	-0,080841
2,583500	-0,054702
2,584000	-0,000617
2,584500	0,074675
2,585000	0,153748
2,585500	0,189092
2,586000	0,174132
2,586500	0,150624
2,587000	0,101964
2,587500	0,074346
2,588000	0,089635
2,588500	0,053961
2,589000	-0,036783
2,589500	-0,115527
2,590000	-0,157612
2,590500	-0,174380
2,591000	-0,176517
2,591500	-0,154982
2,592000	-0,086594
2,592500	-0,018371
2,593000	0,018617
2,593500	0,028645
2,594000	0,017137
2,594500	-0,028892
2,595000	-0,054538
2,595500	-0,070648
2,596000	-0,076402
2,596500	-0,082156
2,597000	-0,101554
2,597500	-0,098266
2,598000	-0,059305
2,598500	-0,002425
2,599000	0,021576
2,599500	0,007767
2,600000	-0,034317
2,600500	-0,109445
2,601000	-0,175531
2,601500	-0,208902
2,602000	-0,192463
2,602500	-0,102047
2,603000	0,027330
2,603500	0,142405
2,604000	0,199778
2,604500	0,244821
2,605000	0,325538
2,605500	0,398857
2,606000	0,411515
2,606500	0,391131
2,607000	0,356608
2,607500	0,323730
2,608000	0,293153
2,608500	0,250904
2,609000	0,204545
2,609500	0,172324
2,610000	0,132048
2,610500	0,085032
2,611000	0,041632
2,611500	0,003493
2,612000	-0,024618
2,612500	-0,052894
2,613000	-0,083964
2,613500	-0,118322
2,614000	-0,144789
2,614500	-0,156297
2,615000	-0,149392
2,615500	-0,139364
2,616000	-0,124405
2,616500	-0,100074
2,617000	-0,035961
2,617500	0,031933
2,618000	0,069414
2,618500	0,092429
2,619000	0,087333
2,619500	0,088484
2,620000	0,113472
2,620500	0,126459
2,621000	0,124650
2,621500	0,151282
2,622000	0,219998
2,622500	0,244493
2,623000	0,197476
2,623500	0,157364
2,624000	0,129911
2,624500	0,099498
2,625000	0,071387
2,625500	0,058729
2,626000	0,045084
2,626500	0,021576
2,627000	-0,000288
2,627500	-0,006864
2,628000	-0,007193
2,628500	-0,007193
2,629000	-0,004727
2,629500	-0,002261
2,630000	-0,002754
2,630500	-0,002425
2,631000	0,001685
2,631500	0,013685
2,632000	0,015494
2,632500	0,012863
2,633000	0,017959
2,633500	0,029467
2,634000	0,031275
2,634500	0,026015
2,635000	0,030946
2,635500	0,027987
2,636000	0,010726
2,636500	0,000863
2,637000	-0,023303
2,637500	-0,050264
2,638000	-0,082649
2,638500	-0,106486
2,639000	-0,107637
2,639500	-0,096622
2,640000	-0,088567
2,640500	-0,078210
2,641000	-0,066045
2,641500	-0,039907
2,642000	-0,018371
2,642500	-0,011302
2,643000	-0,023139
2,643500	-0,043195
2,644000	-0,047304
2,644500	-0,020673
2,645000	0,010562
2,645500	0,027823
2,646000	0,036207
2,646500	0,041468
2,647000	0,050674
2,647500	0,080100
2,648000	0,108540
2,648500	0,099169
2,649000	0,058893
2,649500	0,027659
2,650000	0,030782
2,650500	0,052646
2,651000	0,068099
2,651500	0,061195
2,652000	0,047714
2,652500	0,037029
2,653000	0,016644
2,653500	-0,014262
2,654000	-0,041058
2,654500	-0,052401
2,655000	-0,052072
2,655500	-0,047962
2,656000	-0,037277
2,656500	-0,038263
2,657000	-0,046482
2,657500	-0,053387
2,658000	-0,049606
2,658500	-0,032674
2,659000	-0,023961
2,659500	-0,030865
2,660000	-0,040729
2,660500	-0,038427
2,661000	-0,015577
2,661500	0,003328
2,662000	-0,011302
2,662500	-0,024454
2,663000	-0,025933
2,663500	-0,047469
2,664000	-0,069662
2,664500	-0,073443
2,665000	-0,061607
2,665500	-0,074594
2,666000	-0,113226
2,666500	-0,117500
2,667000	-0,094485
2,667500	-0,084293
2,668000	-0,075744
2,668500	-0,061607
2,669000	-0,035961
2,669500	0,008589
2,670000	0,071880
2,670500	0,126459
2,671000	0,149474
2,671500	0,133034
2,672000	0,076812
2,672500	0,015329
2,673000	-0,013111
2,673500	-0,016234
2,674000	-0,051250
2,674500	-0,106157
2,675000	-0,131145
2,675500	-0,122267
2,676000	-0,080676
2,676500	0,005137
2,677000	0,102457
2,677500	0,190901
2,678000	0,239396
2,678500	0,230848
2,679000	0,176105
2,679500	0,130568
2,680000	0,159008
2,680500	0,190901
2,681000	0,149145
2,681500	0,099827
2,682000	0,088977
2,682500	0,107389
2,683000	0,122678
2,683500	0,120376
2,684000	0,088319
2,684500	0,032262
2,685000	-0,028399
2,685500	-0,077224
2,686000	-0,116185
2,686500	-0,144132
2,687000	-0,142652
2,687500	-0,110102
2,688000	-0,040893
2,688500	0,058400
2,689000	0,122184
2,689500	0,144049
2,690000	0,142569
2,690500	0,144871
2,691000	0,166735
2,691500	0,190407
2,692000	0,166735
2,692500	0,103444
2,693000	0,043440
2,693500	-0,002590
2,694000	-0,017385
2,694500	-0,013933
2,695000	-0,023139
2,695500	-0,035633
2,696000	-0,041222
2,696500	-0,036783
2,697000	-0,036290
2,697500	-0,038756
2,698000	-0,036619
2,698500	-0,058976
2,699000	-0,102869
2,699500	-0,130816
2,700000	-0,144132
2,700500	-0,173722
2,701000	-0,208080
2,701500	-0,220903
2,702000	-0,209889
2,702500	-0,172407
2,703000	-0,106321
2,703500	-0,033167
2,704000	0,043605
2,704500	0,113965
2,705000	0,111006
2,705500	0,071058
2,706000	0,050016
2,706500	0,029631
2,707000	0,033906
2,707500	0,026179
2,708000	0,040152
2,708500	0,074346
2,709000	0,066948
2,709500	0,052482
2,710000	0,081086
2,710500	0,150460
2,711000	0,190407
2,711500	0,159502
2,712000	0,111006
2,712500	0,088319
2,713000	0,118403
2,713500	0,184982
2,714000	0,214902
2,714500	0,204216
2,715000	0,183832
2,715500	0,153912
2,716000	0,115937
2,716500	0,098183
2,717000	0,098841
2,717500	0,098183
2,718000	0,093087
2,718500	0,087004
2,719000	0,080100
2,719500	0,073195
2,720000	0,068592
2,720500	0,058729
2,721000	0,043605
2,721500	0,030124
2,722000	0,019768
2,722500	0,021083
2,723000	0,029138
2,723500	0,038015
2,724000	0,039988
2,724500	0,032919
2,725000	0,029303
2,725500	0,019603
2,726000	0,001191
2,726500	-0,021988
2,727000	-0,050921
2,727500	-0,082813
2,728000	-0,106157
2,728500	-0,125720
2,729000	-0,137556
2,729500	-0,137556
2,730000	-0,129501
2,730500	-0,129501
2,731000	-0,130323
2,731500	-0,130487
2,732000	-0,123089
2,732500	-0,121774
2,733000	-0,127528
2,733500	-0,109938
2,734000	-0,071635
2,734500	-0,038592
2,735000	-0,017878
2,735500	0,016644
2,736000	0,054783
2,736500	0,069743
2,737000	0,058071
2,737500	0,026343
2,738000	-0,033167
2,738500	-0,097773
2,739000	-0,137063
2,739500	-0,163530
2,740000	-0,190984
2,740500	-0,220246
2,741000	-0,199696
2,741500	-0,127528
2,742000	-0,064566
2,742500	-0,024289
2,743000	0,013028
2,743500	0,032097
2,744000	0,023878
2,744500	0,028974
2,745000	0,070072
2,745500	0,119061
2,746000	0,156214
2,746500	0,177092
2,747000	0,188270
2,747500	0,200435
2,748000	0,229533
2,748500	0,227396
2,749000	0,170023
2,749500	0,128924
2,750000	0,129582
2,750500	0,124979
2,751000	0,115115
2,751500	0,111499
2,752000	0,104759
2,752500	0,084374
2,753000	0,068264
2,753500	0,053633
2,754000	0,042618
2,754500	0,030946
2,755000	0,007767
2,755500	-0,017056
2,756000	-0,033824
2,756500	-0,060949
2,757000	-0,089060
2,757500	-0,126870
2,758000	-0,189997
2,758500	-0,274824
2,759000	-0,379049
2,759500	-0,455820
2,760000	-0,455491
2,760500	-0,396639
2,761000	-0,259371
2,761500	-0,083471
2,762000	0,011877
2,762500	0,026015
2,763000	0,055934
2,763500	0,092922
2,764000	0,114294
2,764500	0,125472
2,765000	0,125637
2,765500	0,122184
2,766000	0,116595
2,766500	0,106567
2,767000	0,134514
2,767500	0,189585
2,768000	0,215559
2,768500	0,232163
2,769000	0,252383
2,769500	0,249917
2,770000	0,217697
2,770500	0,198134
2,771000	0,218847
2,771500	0,250246
2,772000	0,302194
2,772500	0,316497
2,773000	0,262247
2,773500	0,198134
2,774000	0,163283
2,774500	0,134185
2,775000	0,101800
2,775500	0,074839
2,776000	0,052482
2,776500	0,026508
2,777000	-0,011138
2,777500	-0,042866
2,778000	-0,067360
2,778500	-0,086594
2,779000	-0,094814
2,779500	-0,073772
2,780000	-0,041386
2,780500	-0,015577
2,781000	0,006452
2,781500	0,019768
2,782000	0,011055
2,782500	-0,003905
2,783000	-0,007357
2,783500	-0,000946
2,784000	0,010397
2,784500	0,025028
2,785000	0,035714
2,785500	0,012370
2,786000	-0,010974
2,786500	-0,036948
2,787000	-0,052729
2,787500	-0,038263
2,788000	-0,012124
2,788500	0,019768
2,789000	0,038180
2,789500	0,036043
2,790000	0,031768
2,790500	0,046399
2,791000	0,039824
2,791500	0,008589
2,792000	-0,038427
2,792500	-0,093170
2,793000	-0,155475
2,793500	-0,214985
2,794000	-0,260357
2,794500	-0,301620
2,795000	-0,351595
2,795500	-0,369678
2,796000	-0,338444
2,796500	-0,306880
2,797000	-0,279756
2,797500	-0,209396
2,798000	-0,086759
2,798500	0,020754
2,799000	0,064483
2,799500	0,074346
2,800000	0,100485
2,800500	0,102950
2,801000	0,093416
2,801500	0,118239
2,802000	0,171667
2,802500	0,185476
2,803000	0,153090
2,803500	0,137308
2,804000	0,149309
2,804500	0,165748
2,805000	0,166242
2,805500	0,145857
2,806000	0,111828
2,806500	0,084538
2,807000	0,051002
2,807500	-0,000124
2,808000	-0,038592
2,808500	-0,066867
2,809000	-0,064237
2,809500	-0,040564
2,810000	-0,003905
2,810500	0,040317
2,811000	0,099498
2,811500	0,176434
2,812000	0,249260
2,812500	0,289536
2,813000	0,252712
2,813500	0,208326
2,814000	0,190079
2,814500	0,174297
2,815000	0,144871
2,815500	0,120540
2,816000	0,098676
2,816500	0,064976
2,817000	0,011219
2,817500	-0,056839
2,818000	-0,115527
2,818500	-0,135255
2,819000	-0,116349
2,819500	-0,077060
2,820000	-0,031358
2,820500	0,005137
2,821000	0,022234
2,821500	0,034727
2,822000	0,050838
2,822500	0,051496
2,823000	0,044262
2,823500	0,028152
2,824000	-0,015577
2,824500	-0,059634
2,825000	-0,075251
2,825500	-0,054702
2,826000	-0,042701
2,826500	-0,062100
2,827000	-0,080019
2,827500	-0,064566
2,828000	-0,029386
2,828500	-0,008672
2,829000	-0,009659
2,829500	-0,017385
2,830000	-0,031523
2,830500	-0,050264
2,831000	-0,086430
2,831500	-0,105664
2,832000	-0,071141
2,832500	-0,037770
2,833000	-0,028399
2,833500	-0,017056
2,834000	0,012370
2,834500	0,060208
2,835000	0,078292
2,835500	0,100156
2,836000	0,133692
2,836500	0,145364
2,837000	0,121527
2,837500	0,095060
2,838000	0,079113
2,838500	0,076154
2,839000	0,083552
2,839500	0,081744
2,840000	0,044098
2,840500	-0,007686
2,841000	-0,048948
2,841500	-0,052565
2,842000	-0,012124
2,842500	0,016480
2,843000	0,011219
2,843500	0,006616
2,844000	0,019932
2,844500	0,006288
2,845000	-0,053387
2,845500	-0,078868
2,846000	-0,072785
2,846500	-0,095636
2,847000	-0,132131
2,847500	-0,125884
2,848000	-0,096787
2,848500	-0,082813
2,849000	-0,065716
2,849500	-0,049770
2,850000	-0,059470
2,850500	-0,071141
2,851000	-0,057990
2,851500	-0,013111
2,852000	-0,003905
2,852500	-0,043030
2,853000	-0,054867
2,853500	-0,015741
2,854000	0,024042
2,854500	0,044591
2,855000	0,050180
2,855500	0,075168
2,856000	0,118075
2,856500	0,125472
2,857000	0,038180
2,857500	-0,058812
2,858000	-0,102540
2,858500	-0,119144
2,859000	-0,146433
2,859500	-0,154488
2,860000	-0,127528
2,860500	-0,111582
2,861000	-0,114048
2,861500	-0,082649
2,862000	-0,005713
2,862500	0,075661
2,863000	0,116102
2,863500	0,133527
2,864000	0,131226
2,864500	0,134843
2,865000	0,151117
2,865500	0,140432
2,866000	0,141583
2,866500	0,191394
2,867000	0,241698
2,867500	0,222793
2,868000	0,148652
2,868500	0,100813
2,869000	0,068428
2,869500	0,018946
2,870000	-0,025440
2,870500	-0,061771
2,871000	-0,103856
2,871500	-0,146762
2,872000	-0,191970
2,872500	-0,216629
2,873000	-0,189833
2,873500	-0,141830
2,874000	-0,089882
2,874500	-0,023303
2,875000	0,034234
2,875500	0,060373
2,876000	0,109855
2,876500	0,196819
2,877000	0,240876
2,877500	0,240876
2,878000	0,233478
2,878500	0,234136
2,879000	0,200600
2,879500	0,146021
2,880000	0,097032
2,880500	0,083716
2,881000	0,073524
2,881500	0,032590
2,882000	-0,042866
2,882500	-0,122432
2,883000	-0,186052
2,883500	-0,228794
2,884000	-0,258878
2,884500	-0,268248
2,885000	-0,254768
2,885500	-0,223533
2,886000	-0,155968
2,886500	-0,068018
2,887000	0,039988
2,887500	0,140432
2,888000	0,177092
2,888500	0,155063
2,889000	0,168050
2,889500	0,191558
2,890000	0,179557
2,890500	0,177585
2,891000	0,196819
2,891500	0,206518
2,892000	0,198627
2,892500	0,185804
2,893000	0,170351
2,893500	0,150953
2,894000	0,130404
2,894500	0,103772
2,895000	0,083881
2,895500	0,083388
2,896000	0,080757
2,896500	0,063825
2,897000	0,042947
2,897500	0,027330
2,898000	0,018288
2,898500	0,016644
2,899000	0,026672
2,899500	0,042125
2,900000	0,048701
2,900500	0,041961
2,901000	0,029631
2,901500	0,017795
2,902000	0,017302
2,902500	0,018946
2,903000	0,016151
2,903500	0,005959
2,904000	-0,001932
2,904500	-0,003247
2,905000	0,005794
2,905500	0,012370
2,906000	0,011877
2,906500	0,009082
2,907000	0,008425
2,907500	0,008260
2,908000	0,011713
2,908500	0,004808
2,909000	-0,008508
2,909500	-0,013111
2,910000	-0,011138
2,910500	-0,009165
2,911000	-0,006206
2,911500	-0,000617
2,912000	0,017631
2,912500	0,022727
2,913000	0,012041
2,913500	0,009904
2,914000	0,015494
2,914500	0,021412
2,915000	0,026015
2,915500	0,026179
2,916000	0,014014
2,916500	0,005301
2,917000	-0,003083
2,917500	-0,013111
2,918000	-0,032345
2,918500	-0,067032
2,919000	-0,097609
2,919500	-0,113719
2,920000	-0,121774
2,920500	-0,126377
2,921000	-0,137227
2,921500	-0,146433
2,922000	-0,145611
2,922500	-0,154324
2,923000	-0,179147
2,923500	-0,197888
2,924000	-0,198217
2,924500	-0,191148
2,925000	-0,169284
2,925500	-0,132131
2,926000	-0,084457
2,926500	-0,023632
2,927000	0,043276
2,927500	0,069414
2,928000	0,021247
2,928500	-0,071799
2,929000	-0,141501
2,929500	-0,152351
2,930000	-0,105499
2,930500	-0,035139
2,931000	0,017137
2,931500	0,058236
2,932000	0,097361
2,932500	0,120869
2,933000	0,155392
2,933500	0,170516
2,934000	0,167557
2,934500	0,123006
2,935000	0,026508
2,935500	-0,057661
2,936000	-0,082978
2,936500	-0,079525
2,937000	-0,068018
2,937500	-0,021824
2,938000	0,057742
2,938500	0,095882
2,939000	0,094238
2,939500	0,091936
2,940000	0,123500
2,940500	0,152268
2,941000	0,153090
2,941500	0,148487
2,942000	0,130404
2,942500	0,099991
2,943000	0,048372
2,943500	0,004808
2,944000	0,009082
2,944500	0,017959
2,945000	0,009411
2,945500	0,008753
2,946000	0,009247
2,946500	-0,002754
2,947000	-0,012782
2,947500	-0,024783
2,948000	-0,028399
2,948500	-0,043688
2,949000	-0,066374
2,949500	-0,054373
2,950000	-0,006206
2,950500	-0,012453
2,951000	-0,073114
2,951500	-0,120295
2,952000	-0,150214
2,952500	-0,186874
2,953000	-0,234876
2,953500	-0,280742
2,954000	-0,292743
2,954500	-0,244576
2,955000	-0,135090
2,955500	0,002013
2,956000	0,095553
2,956500	0,126952
2,957000	0,133527
2,957500	0,168543
2,958000	0,156542
2,958500	0,092101
2,959000	0,053633
2,959500	0,025193
2,960000	-0,038263
2,960500	-0,120788
2,961000	-0,179147
2,961500	-0,193614
2,962000	-0,162379
2,962500	-0,039578
2,963000	0,101471
2,963500	0,177092
2,964000	0,253041
2,964500	0,346252
2,965000	0,418420
2,965500	0,434859
2,966000	0,412831
2,966500	0,348060
2,967000	0,257808
2,967500	0,175941
2,968000	0,148323
2,968500	0,147665
2,969000	0,124650
2,969500	0,100978
2,970000	0,103279
2,970500	0,111499
2,971000	0,097690
2,971500	0,074510
2,972000	0,042618
2,972500	-0,003083
2,973000	-0,041879
2,973500	-0,083635
2,974000	-0,135912
2,974500	-0,176846
2,975000	-0,182106
2,975500	-0,136405
2,976000	-0,047798
2,976500	0,010726
2,977000	0,020754
2,977500	0,016644
2,978000	0,040974
2,978500	0,083223
2,979000	0,140596
2,979500	0,200764
2,980000	0,203723
2,980500	0,148980
2,981000	0,091607
2,981500	0,039659
2,982000	0,002671
2,982500	-0,016563
2,983000	-0,018043
2,983500	-0,016234
2,984000	-0,011960
2,984500	-0,004234
2,985000	0,016480
2,985500	0,037522
2,986000	0,047879
2,986500	0,058236
2,987000	0,057249
2,987500	0,061852
2,988000	0,079935
2,988500	0,107060
2,989000	0,097197
2,989500	0,057907
2,990000	0,033906
2,990500	0,025028
2,991000	0,014014
2,991500	0,001356
2,992000	-0,018371
2,992500	-0,047140
2,993000	-0,063086
2,993500	-0,048291
2,994000	-0,028892
2,994500	-0,023961
2,995000	-0,045496
2,995500	-0,075580
2,996000	-0,099088
2,996500	-0,118980
2,997000	-0,135912
2,997500	-0,156297
2,998000	-0,190490
2,998500	-0,235370
2,999000	-0,269728
2,999500	-0,291099
3,000000	-0,299318
3,000500	-0,269399
3,001000	-0,220574
3,001500	-0,168462
3,002000	-0,093334
3,002500	-0,002261
3,003000	0,107389
3,003500	0,213915
3,004000	0,282960
3,004500	0,334415
3,005000	0,362198
3,005500	0,360883
3,006000	0,350033
3,006500	0,335730
3,007000	0,284111
3,007500	0,209477
3,008000	0,149638
3,008500	0,117581
3,009000	0,111828
3,009500	0,108704
3,010000	0,097690
3,010500	0,092101
3,011000	0,071058
3,011500	0,027987
3,012000	-0,014755
3,012500	-0,064237
3,013000	-0,097444
3,013500	-0,118322
3,014000	-0,139858
3,014500	-0,165832
3,015000	-0,189997
3,015500	-0,211533
3,016000	-0,224355
3,016500	-0,234054
3,017000	-0,235370
3,017500	-0,210382
3,018000	-0,163530
3,018500	-0,081991
3,019000	0,024864
3,019500	0,117253
3,020000	0,181695
3,020500	0,227067
3,021000	0,269480
3,021500	0,313209
3,022000	0,309921
3,022500	0,241040
3,023000	0,170187
3,023500	0,134349
3,024000	0,095388
3,024500	0,077470
3,025000	0,078785
3,025500	0,082895
3,026000	0,074839
3,026500	0,075168
3,027000	0,077634
3,027500	0,050345
3,028000	0,044098
3,028500	0,048536
3,029000	-0,005713
3,029500	-0,089389
3,030000	-0,140186
3,030500	-0,164188
3,031000	-0,207916
3,031500	-0,278605
3,032000	-0,333512
3,032500	-0,372144
3,033000	-0,417352
3,033500	-0,452203
3,034000	-0,418339
3,034500	-0,321511
3,035000	-0,218930
3,035500	-0,115692
3,036000	0,014672
3,036500	0,151939
3,037000	0,254192
3,037500	0,314031
3,038000	0,334415
3,038500	0,294139
3,039000	0,221149
3,039500	0,153419
3,040000	0,109691
3,040500	0,117581
3,041000	0,148158
3,041500	0,171667
3,042000	0,162461
3,042500	0,126952
3,043000	0,061688
3,043500	0,008260
3,044000	-0,023796
3,044500	-0,048948
3,045000	-0,066210
3,045500	-0,079854
3,046000	-0,092019
3,046500	-0,079032
3,047000	-0,065059
3,047500	-0,063251
3,048000	-0,054373
3,048500	0,000698
3,049000	0,067770
3,049500	0,082073
3,050000	0,076812
3,050500	0,113472
3,051000	0,169529
3,051500	0,223779
3,052000	0,241862
3,052500	0,224930
3,053000	0,191887
3,053500	0,149967
3,054000	0,104430
3,054500	0,078949
3,055000	0,074510
3,055500	0,071551
3,056000	0,075661
3,056500	0,092594
3,057000	0,125965
3,057500	0,147008
3,058000	0,139610
3,058500	0,123171
3,059000	0,130240
3,059500	0,145857
3,060000	0,124650
3,060500	0,066620
3,061000	0,032426
3,061500	0,029631
3,062000	0,009575
3,062500	-0,027577
3,063000	-0,070484
3,063500	-0,088238
3,064000	-0,083964
3,064500	-0,067032
3,065000	-0,045825
3,065500	-0,023796
3,066000	0,006781
3,066500	0,017959
3,067000	-0,010645
3,067500	-0,045825
3,068000	-0,065059
3,068500	-0,071799
3,069000	-0,083635
3,069500	-0,105335
3,070000	-0,121446
3,070500	-0,103527
3,071000	-0,037605
3,071500	0,045577
3,072000	0,116924
3,072500	0,177913
3,073000	0,207011
3,073500	0,173146
3,074000	0,122842
3,074500	0,090950
3,075000	0,084045
3,075500	0,091936
3,076000	0,086840
3,076500	0,075004
3,077000	0,071387
3,077500	0,067606
3,078000	0,059386
3,078500	0,051002
3,079000	0,042125
3,079500	0,031275
3,080000	0,032919
3,080500	0,045742
3,081000	0,050016
3,081500	0,051660
3,082000	0,050180
3,082500	0,047386
3,083000	0,049030
3,083500	0,043933
