LabVIEW Measurement	
Writer_Version	2
Reader_Version	2
Separator	Tab
Decimal_Separator	.
Multi_Headings	Yes
X_Columns	One
Time_Pref	Absolute
Operator	absf624
Date	2017/04/21
Time	15:14:36.7956739300347404975
***End_of_Header***	
	
Channels	1	
Samples	1000	
Date	2017/04/21	
Time	15:14:36.7956739300347404975	
Y_Unit_Label	Volts	
X_Dimension	Time	
X0	0.0000000000000000E+0	
Delta_X	0.001000	
***End_of_Header***		
X_Value	Voltage	Comment
0.000000	-0.015988
0.001000	-0.009083
0.002000	0.004727
0.003000	-0.007110
0.004000	0.003741
0.005000	-0.000534
0.006000	-0.007768
0.007000	-0.018618
0.008000	-0.024537
0.009000	-0.032428
0.010000	-0.036045
0.011000	-0.016317
0.012000	0.000782
0.013000	-0.008425
0.014000	0.001110
0.015000	0.002097
0.016000	0.017222
0.017000	0.023470
0.018000	0.041225
0.019000	0.033663
0.020000	0.036293
0.021000	-0.002507
0.022000	-0.021906
0.023000	-0.032757
0.024000	-0.029469
0.025000	-0.018947
0.026000	-0.006781
0.027000	0.012948
0.028000	0.025442
0.029000	0.022483
0.030000	0.030375
0.031000	0.009331
0.032000	-0.008096
0.033000	-0.001191
0.034000	0.007029
0.035000	0.015249
0.036000	0.014263
0.037000	0.009331
0.038000	0.011303
0.039000	0.006700
0.040000	-0.005795
0.041000	-0.039005
0.042000	-0.014015
0.043000	-0.008096
0.044000	-0.002835
0.045000	0.004070
0.046000	-0.003822
0.047000	-0.004151
0.048000	0.004070
0.049000	0.020510
0.050000	0.009659
0.051000	0.016236
0.052000	0.012619
0.053000	0.003741
0.054000	-0.006781
0.055000	-0.018290
0.056000	-0.034401
0.057000	-0.013357
0.058000	-0.004808
0.059000	-0.002178
0.060000	-0.005795
0.061000	-0.010727
0.062000	-0.013686
0.063000	-0.011056
0.064000	-0.003493
0.065000	0.002426
0.066000	0.004727
0.067000	0.004727
0.068000	0.008015
0.069000	0.004398
0.070000	0.004398
0.071000	-0.009083
0.072000	-0.007768
0.073000	0.004398
0.074000	0.003083
0.075000	0.003083
0.076000	0.002426
0.077000	0.007358
0.078000	0.006043
0.079000	-0.009083
0.080000	-0.022893
0.081000	-0.012371
0.082000	-0.003493
0.083000	-0.006781
0.084000	-0.001520
0.085000	0.002426
0.086000	0.001439
0.087000	0.012619
0.088000	0.021168
0.089000	0.010317
0.090000	0.013605
0.091000	0.007358
0.092000	0.001110
0.093000	0.009659
0.094000	0.009002
0.095000	-0.001520
0.096000	0.003741
0.097000	0.002426
0.098000	-0.003822
0.099000	0.003741
0.100000	0.009331
0.101000	-0.000205
0.102000	-0.001520
0.103000	-0.011056
0.104000	-0.009412
0.105000	-0.005466
0.106000	-0.007768
0.107000	-0.001191
0.108000	0.001110
0.109000	0.005385
0.110000	0.015578
0.111000	0.014920
0.112000	0.020181
0.113000	0.018209
0.114000	0.013605
0.115000	-0.004479
0.116000	-0.006781
0.117000	-0.007768
0.118000	-0.020262
0.119000	-0.032100
0.120000	-0.011713
0.121000	0.007358
0.122000	0.024127
0.123000	0.034978
0.124000	0.039910
0.125000	0.035964
0.126000	0.017222
0.127000	0.013605
0.128000	0.015249
0.129000	-0.006781
0.130000	-0.007768
0.131000	-0.023222
0.132000	-0.017961
0.133000	-0.018947
0.134000	-0.022564
0.135000	-0.001849
0.136000	0.029059
0.137000	0.032019
0.138000	0.036622
0.139000	0.016893
0.140000	0.000782
0.141000	-0.002835
0.142000	0.001768
0.143000	-0.007768
0.144000	0.002426
0.145000	0.019524
0.146000	0.035307
0.147000	0.026100
0.148000	0.018537
0.149000	-0.016645
0.150000	-0.005137
0.151000	0.005385
0.152000	0.012948
0.153000	0.002097
0.154000	-0.015988
0.155000	-0.005137
0.156000	-0.009740
0.157000	-0.003822
0.158000	-0.005466
0.159000	-0.007768
0.160000	-0.000205
0.161000	0.005385
0.162000	-0.004151
0.163000	-0.010727
0.164000	-0.009412
0.165000	-0.006452
0.166000	-0.001849
0.167000	-0.008425
0.168000	-0.007768
0.169000	0.000782
0.170000	0.000782
0.171000	0.006371
0.172000	-0.004151
0.173000	-0.014673
0.174000	-0.020920
0.175000	0.001439
0.176000	0.010975
0.177000	0.003412
0.178000	0.007358
0.179000	0.015249
0.180000	0.019195
0.181000	0.011303
0.182000	0.002426
0.183000	-0.005795
0.184000	-0.010398
0.185000	-0.000863
0.186000	-0.001520
0.187000	-0.007110
0.188000	-0.006123
0.189000	0.001439
0.190000	0.009002
0.191000	0.004727
0.192000	0.010317
0.193000	0.003741
0.194000	-0.001849
0.195000	-0.002178
0.196000	-0.006781
0.197000	-0.000205
0.198000	0.007029
0.199000	-0.004808
0.200000	-0.015001
0.201000	-0.016974
0.202000	-0.011056
0.203000	-0.015988
0.204000	-0.016974
0.205000	-0.000534
0.206000	0.011303
0.207000	0.021825
0.208000	0.008673
0.209000	0.014920
0.210000	0.000124
0.211000	-0.005795
0.212000	-0.001191
0.213000	-0.011713
0.214000	-0.004808
0.215000	0.001439
0.216000	0.001768
0.217000	0.003083
0.218000	0.006700
0.219000	0.020839
0.220000	0.016893
0.221000	-0.004808
0.222000	-0.007439
0.223000	-0.012700
0.224000	-0.016645
0.225000	-0.023879
0.226000	-0.033744
0.227000	-0.033744
0.228000	-0.029469
0.229000	-0.008425
0.230000	0.005714
0.231000	0.013276
0.232000	0.016564
0.233000	0.020181
0.234000	0.021497
0.235000	-0.004808
0.236000	-0.011384
0.237000	-0.014344
0.238000	-0.009412
0.239000	0.002097
0.240000	0.005056
0.241000	0.000782
0.242000	0.012619
0.243000	0.016236
0.244000	0.006700
0.245000	0.001768
0.246000	-0.001520
0.247000	-0.002507
0.248000	-0.003164
0.249000	0.007358
0.250000	0.013605
0.251000	0.028073
0.252000	0.015578
0.253000	0.022154
0.254000	0.026100
0.255000	0.014920
0.256000	0.009659
0.257000	0.001439
0.258000	-0.010069
0.259000	-0.009740
0.260000	-0.003493
0.261000	-0.004808
0.262000	-0.015659
0.263000	-0.014673
0.264000	-0.006452
0.265000	0.002426
0.266000	-0.004151
0.267000	-0.013029
0.268000	0.009331
0.269000	0.020839
0.270000	0.024127
0.271000	0.007687
0.272000	0.007029
0.273000	0.010975
0.274000	0.006700
0.275000	-0.008754
0.276000	-0.028154
0.277000	-0.038347
0.278000	-0.039662
0.279000	-0.030456
0.280000	-0.013029
0.281000	-0.000205
0.282000	0.012290
0.283000	0.012948
0.284000	0.022812
0.285000	0.022812
0.286000	-0.001191
0.287000	0.014592
0.288000	0.019195
0.289000	0.014263
0.290000	0.019195
0.291000	0.030046
0.292000	0.027744
0.293000	0.017551
0.294000	0.011961
0.295000	0.009659
0.296000	0.007029
0.297000	-0.002178
0.298000	-0.005466
0.299000	-0.013357
0.300000	-0.016645
0.301000	-0.023879
0.302000	-0.027825
0.303000	-0.012371
0.304000	-0.009740
0.305000	-0.014673
0.306000	0.001768
0.307000	0.003083
0.308000	0.002097
0.309000	0.003412
0.310000	-0.007768
0.311000	-0.010069
0.312000	-0.015659
0.313000	-0.008754
0.314000	-0.003493
0.315000	-0.003822
0.316000	0.002426
0.317000	0.012290
0.318000	0.003412
0.319000	0.004727
0.320000	-0.007768
0.321000	-0.012371
0.322000	-0.018618
0.323000	-0.023222
0.324000	-0.031113
0.325000	-0.009083
0.326000	0.003741
0.327000	0.016564
0.328000	0.013276
0.329000	0.011303
0.330000	0.001768
0.331000	-0.012371
0.332000	-0.015330
0.333000	-0.007768
0.334000	-0.005795
0.335000	0.000453
0.336000	0.032019
0.337000	0.032019
0.338000	0.016236
0.339000	0.011303
0.340000	0.002426
0.341000	-0.011056
0.342000	-0.011384
0.343000	-0.027496
0.344000	-0.029469
0.345000	-0.019934
0.346000	-0.009412
0.347000	-0.008096
0.348000	-0.024866
0.349000	-0.014344
0.350000	0.005385
0.351000	0.030046
0.352000	0.033663
0.353000	0.032019
0.354000	0.031690
0.355000	0.026100
0.356000	-0.016974
0.357000	-0.025195
0.358000	-0.043937
0.359000	-0.036045
0.360000	-0.015659
0.361000	0.003741
0.362000	0.019524
0.363000	0.033334
0.364000	0.044513
0.365000	0.025114
0.366000	0.013605
0.367000	-0.009083
0.368000	-0.030456
0.369000	-0.052815
0.370000	-0.034401
0.371000	-0.025523
0.372000	-0.004479
0.373000	-0.003493
0.374000	0.012290
0.375000	0.025442
0.376000	0.034649
0.377000	0.020510
0.378000	-0.000205
0.379000	-0.018290
0.380000	-0.032757
0.381000	-0.030784
0.382000	-0.022893
0.383000	-0.032100
0.384000	-0.020262
0.385000	0.011961
0.386000	0.029059
0.387000	0.022154
0.388000	0.004070
0.389000	0.008673
0.390000	0.011632
0.391000	0.012619
0.392000	0.012290
0.393000	0.001768
0.394000	0.005385
0.395000	0.004070
0.396000	0.010975
0.397000	0.006371
0.398000	0.008673
0.399000	-0.002507
0.400000	-0.009083
0.401000	0.005385
0.402000	-0.002178
0.403000	-0.006123
0.404000	-0.004151
0.405000	-0.003164
0.406000	-0.000534
0.407000	0.009331
0.408000	-0.013357
0.409000	0.001110
0.410000	0.016564
0.411000	-0.000534
0.412000	-0.004479
0.413000	0.000453
0.414000	-0.011713
0.415000	-0.003822
0.416000	-0.010069
0.417000	-0.000863
0.418000	0.010317
0.419000	0.016893
0.420000	0.021497
0.421000	0.017551
0.422000	0.008344
0.423000	-0.007439
0.424000	-0.009740
0.425000	0.000782
0.426000	0.006043
0.427000	0.002754
0.428000	0.002097
0.429000	0.003412
0.430000	0.011961
0.431000	0.004398
0.432000	-0.002835
0.433000	-0.003164
0.434000	0.009659
0.435000	0.022154
0.436000	0.031690
0.437000	0.014920
0.438000	0.007687
0.439000	0.003083
0.440000	-0.013029
0.441000	-0.014015
0.442000	-0.009412
0.443000	-0.000534
0.444000	-0.009083
0.445000	-0.015659
0.446000	-0.010398
0.447000	-0.001520
0.448000	0.002754
0.449000	-0.001520
0.450000	0.002426
0.451000	0.012290
0.452000	-0.006123
0.453000	-0.005466
0.454000	-0.010069
0.455000	-0.013686
0.456000	-0.009412
0.457000	-0.005137
0.458000	0.006043
0.459000	0.023798
0.460000	0.027415
0.461000	-0.000534
0.462000	-0.007439
0.463000	0.004070
0.464000	0.001439
0.465000	-0.012371
0.466000	-0.012700
0.467000	-0.011056
0.468000	-0.015659
0.469000	-0.016974
0.470000	-0.021906
0.471000	-0.025523
0.472000	0.004727
0.473000	0.018866
0.474000	0.034320
0.475000	0.031361
0.476000	0.041883
0.477000	0.028730
0.478000	0.013934
0.479000	-0.012371
0.480000	-0.024866
0.481000	-0.016645
0.482000	-0.005795
0.483000	-0.001849
0.484000	0.003741
0.485000	0.008673
0.486000	0.004727
0.487000	0.005056
0.488000	0.005056
0.489000	0.008673
0.490000	0.021168
0.491000	0.029388
0.492000	0.017880
0.493000	0.004727
0.494000	-0.004808
0.495000	-0.013686
0.496000	-0.014673
0.497000	-0.020262
0.498000	-0.036703
0.499000	-0.038018
0.500000	-0.030127
0.501000	-0.001191
0.502000	0.011961
0.503000	0.009659
0.504000	-0.010069
0.505000	-0.030127
0.506000	-0.023222
0.507000	0.012619
0.508000	0.023470
0.509000	0.027086
0.510000	0.038924
0.511000	0.046815
0.512000	0.041225
0.513000	0.032676
0.514000	0.027086
0.515000	0.016236
0.516000	0.012948
0.517000	-0.012371
0.518000	-0.012700
0.519000	0.000782
0.520000	-0.011384
0.521000	-0.012371
0.522000	-0.013686
0.523000	-0.014015
0.524000	-0.009083
0.525000	0.002426
0.526000	-0.011713
0.527000	-0.013357
0.528000	-0.012371
0.529000	0.005714
0.530000	0.006371
0.531000	0.014920
0.532000	0.006371
0.533000	-0.003164
0.534000	0.003083
0.535000	-0.015001
0.536000	-0.011713
0.537000	0.003083
0.538000	0.002097
0.539000	-0.004808
0.540000	-0.002178
0.541000	0.000782
0.542000	0.002426
0.543000	0.002426
0.544000	-0.013357
0.545000	-0.018618
0.546000	-0.008096
0.547000	-0.005137
0.548000	0.005056
0.549000	0.004398
0.550000	0.006043
0.551000	0.007687
0.552000	0.007029
0.553000	-0.007439
0.554000	-0.014015
0.555000	-0.000534
0.556000	-0.001520
0.557000	-0.004808
0.558000	-0.003164
0.559000	-0.004808
0.560000	-0.006781
0.561000	-0.001191
0.562000	-0.006123
0.563000	-0.004151
0.564000	-0.006452
0.565000	-0.015659
0.566000	-0.018947
0.567000	-0.007439
0.568000	-0.003822
0.569000	0.002426
0.570000	0.012948
0.571000	0.042541
0.572000	0.021825
0.573000	0.021497
0.574000	0.022154
0.575000	0.019195
0.576000	0.009331
0.577000	-0.003493
0.578000	-0.010727
0.579000	-0.017303
0.580000	-0.009412
0.581000	-0.010398
0.582000	-0.014673
0.583000	-0.007439
0.584000	-0.008425
0.585000	-0.003493
0.586000	0.021825
0.587000	0.022812
0.588000	0.018209
0.589000	0.014592
0.590000	0.016564
0.591000	0.002426
0.592000	-0.008425
0.593000	-0.029798
0.594000	-0.036703
0.595000	-0.026181
0.596000	-0.003493
0.597000	0.005385
0.598000	0.003741
0.599000	0.016893
0.600000	0.007687
0.601000	-0.008754
0.602000	-0.015659
0.603000	-0.012700
0.604000	0.008015
0.605000	0.015578
0.606000	0.003741
0.607000	0.003741
0.608000	-0.009412
0.609000	0.004727
0.610000	-0.002835
0.611000	-0.013686
0.612000	0.002426
0.613000	0.027744
0.614000	0.021825
0.615000	0.019853
0.616000	0.019195
0.617000	0.009659
0.618000	0.002097
0.619000	-0.003822
0.620000	-0.017632
0.621000	-0.029798
0.622000	-0.023222
0.623000	-0.005795
0.624000	0.003412
0.625000	0.003741
0.626000	0.015907
0.627000	0.023470
0.628000	0.016564
0.629000	0.009988
0.630000	0.009988
0.631000	0.007358
0.632000	0.005056
0.633000	0.006043
0.634000	0.008344
0.635000	-0.000205
0.636000	0.008344
0.637000	0.007029
0.638000	-0.003822
0.639000	-0.022564
0.640000	-0.022235
0.641000	-0.014344
0.642000	-0.020262
0.643000	-0.002835
0.644000	0.001110
0.645000	-0.001849
0.646000	0.002426
0.647000	0.009659
0.648000	0.004070
0.649000	-0.005466
0.650000	-0.007439
0.651000	-0.001191
0.652000	0.002426
0.653000	0.000124
0.654000	0.005714
0.655000	0.001110
0.656000	-0.002835
0.657000	0.003741
0.658000	-0.000534
0.659000	0.005714
0.660000	0.008673
0.661000	0.003412
0.662000	0.004398
0.663000	-0.005795
0.664000	-0.005466
0.665000	-0.007439
0.666000	-0.004479
0.667000	-0.008425
0.668000	0.004070
0.669000	0.012290
0.670000	0.020839
0.671000	0.015249
0.672000	0.009659
0.673000	-0.004808
0.674000	0.004727
0.675000	-0.001191
0.676000	-0.003493
0.677000	-0.003493
0.678000	0.003083
0.679000	0.001439
0.680000	0.001110
0.681000	-0.010727
0.682000	-0.007110
0.683000	-0.008096
0.684000	-0.004479
0.685000	0.007358
0.686000	0.008673
0.687000	0.003083
0.688000	0.007029
0.689000	0.009331
0.690000	-0.001520
0.691000	0.004727
0.692000	0.001110
0.693000	-0.007110
0.694000	-0.005137
0.695000	-0.000534
0.696000	-0.006123
0.697000	-0.015659
0.698000	-0.002507
0.699000	0.007358
0.700000	0.014263
0.701000	0.012948
0.702000	-0.008425
0.703000	0.004727
0.704000	0.002754
0.705000	-0.010727
0.706000	-0.015001
0.707000	-0.008754
0.708000	-0.004808
0.709000	-0.014015
0.710000	0.002097
0.711000	0.013276
0.712000	0.004398
0.713000	-0.000205
0.714000	0.004727
0.715000	0.009002
0.716000	0.017880
0.717000	0.004727
0.718000	0.001768
0.719000	0.011961
0.720000	0.004398
0.721000	0.004727
0.722000	0.013276
0.723000	0.021497
0.724000	0.020510
0.725000	0.008344
0.726000	-0.000534
0.727000	0.006371
0.728000	0.018209
0.729000	0.013276
0.730000	-0.002507
0.731000	-0.001520
0.732000	0.002754
0.733000	-0.002507
0.734000	0.003741
0.735000	0.005385
0.736000	0.017551
0.737000	0.011632
0.738000	0.006043
0.739000	0.003741
0.740000	-0.003493
0.741000	-0.001849
0.742000	-0.007110
0.743000	-0.015330
0.744000	-0.024208
0.745000	0.002097
0.746000	-0.024866
0.747000	-0.059062
0.748000	-0.047883
0.749000	-0.030456
0.750000	-0.015001
0.751000	-0.007768
0.752000	-0.009083
0.753000	0.001110
0.754000	0.011632
0.755000	0.010975
0.756000	-0.006123
0.757000	-0.003164
0.758000	-0.014673
0.759000	-0.018947
0.760000	-0.014344
0.761000	-0.001520
0.762000	0.001768
0.763000	-0.006123
0.764000	0.009002
0.765000	0.019195
0.766000	0.048459
0.767000	0.037608
0.768000	0.029059
0.769000	0.029059
0.770000	0.028730
0.771000	0.028402
0.772000	0.023470
0.773000	0.016564
0.774000	0.028402
0.775000	0.039581
0.776000	0.031032
0.777000	0.012948
0.778000	-0.001849
0.779000	-0.010069
0.780000	-0.008754
0.781000	-0.028154
0.782000	-0.036045
0.783000	-0.032428
0.784000	-0.035717
0.785000	-0.018947
0.786000	0.003412
0.787000	-0.000205
0.788000	0.001768
0.789000	-0.010398
0.790000	0.002097
0.791000	0.012619
0.792000	0.019853
0.793000	0.012290
0.794000	0.008673
0.795000	-0.005137
0.796000	-0.002835
0.797000	-0.003822
0.798000	-0.005795
0.799000	0.004398
0.800000	0.013276
0.801000	0.001110
0.802000	0.001439
0.803000	-0.001520
0.804000	-0.007439
0.805000	-0.011056
0.806000	-0.015330
0.807000	-0.011384
0.808000	-0.012042
0.809000	0.009988
0.810000	0.009002
0.811000	0.009659
0.812000	0.012290
0.813000	0.028730
0.814000	0.027744
0.815000	-0.002507
0.816000	-0.013686
0.817000	-0.012042
0.818000	-0.010727
0.819000	-0.007439
0.820000	-0.010398
0.821000	0.001110
0.822000	0.005714
0.823000	0.001110
0.824000	0.001768
0.825000	0.006371
0.826000	0.004070
0.827000	-0.002835
0.828000	-0.007439
0.829000	-0.005466
0.830000	0.002097
0.831000	0.002097
0.832000	-0.001849
0.833000	-0.009740
0.834000	-0.001520
0.835000	0.006043
0.836000	-0.001849
0.837000	0.004398
0.838000	0.024456
0.839000	0.007029
0.840000	-0.002178
0.841000	0.000782
0.842000	0.001768
0.843000	-0.001520
0.844000	0.000124
0.845000	0.004398
0.846000	0.013934
0.847000	0.011303
0.848000	-0.029469
0.849000	-0.029140
0.850000	-0.020920
0.851000	-0.011384
0.852000	-0.003822
0.853000	0.007029
0.854000	0.014592
0.855000	0.008344
0.856000	-0.004808
0.857000	-0.016645
0.858000	-0.007768
0.859000	0.006043
0.860000	0.014263
0.861000	0.013276
0.862000	0.023141
0.863000	0.034978
0.864000	0.046486
0.865000	0.029388
0.866000	0.011961
0.867000	-0.002178
0.868000	-0.018947
0.869000	-0.019276
0.870000	-0.008425
0.871000	-0.011056
0.872000	0.006043
0.873000	0.007687
0.874000	-0.001191
0.875000	-0.005466
0.876000	0.002426
0.877000	-0.003822
0.878000	0.007358
0.879000	0.018209
0.880000	0.005385
0.881000	0.013934
0.882000	0.013605
0.883000	0.001768
0.884000	0.004727
0.885000	0.001439
0.886000	0.013276
0.887000	0.004727
0.888000	0.004070
0.889000	-0.006452
0.890000	-0.004808
0.891000	0.000453
0.892000	0.005385
0.893000	0.010646
0.894000	0.009002
0.895000	0.001110
0.896000	0.005056
0.897000	0.001768
0.898000	0.006700
0.899000	-0.009083
0.900000	-0.015659
0.901000	-0.012042
0.902000	-0.012042
0.903000	-0.014015
0.904000	-0.005795
0.905000	0.003083
0.906000	0.000124
0.907000	-0.006781
0.908000	-0.002835
0.909000	0.000453
0.910000	0.005385
0.911000	-0.003493
0.912000	0.002754
0.913000	0.016236
0.914000	0.032676
0.915000	0.029059
0.916000	0.016236
0.917000	0.004398
0.918000	-0.010727
0.919000	-0.014673
0.920000	0.006043
0.921000	0.011961
0.922000	0.010975
0.923000	0.022154
0.924000	0.030703
0.925000	0.024785
0.926000	0.010317
0.927000	0.007358
0.928000	0.004070
0.929000	0.001768
0.930000	-0.000534
0.931000	-0.009412
0.932000	-0.003164
0.933000	0.007358
0.934000	0.016893
0.935000	0.002754
0.936000	-0.020920
0.937000	-0.028154
0.938000	-0.027825
0.939000	-0.009412
0.940000	0.003741
0.941000	0.025114
0.942000	0.023141
0.943000	0.028730
0.944000	0.020181
0.945000	0.003741
0.946000	-0.009083
0.947000	-0.005137
0.948000	0.000453
0.949000	0.008673
0.950000	0.014592
0.951000	0.005385
0.952000	0.003741
0.953000	0.006371
0.954000	-0.000534
0.955000	-0.002507
0.956000	-0.004479
0.957000	-0.015330
0.958000	-0.010069
0.959000	-0.001191
0.960000	-0.005466
0.961000	-0.006123
0.962000	-0.003164
0.963000	-0.005466
0.964000	0.003083
0.965000	0.000124
0.966000	0.004398
0.967000	0.010646
0.968000	0.018537
0.969000	0.016236
0.970000	0.020181
0.971000	-0.000863
0.972000	-0.005466
0.973000	-0.008096
0.974000	-0.011384
0.975000	-0.011384
0.976000	-0.001520
0.977000	-0.007110
0.978000	-0.006452
0.979000	-0.032100
0.980000	-0.008096
0.981000	-0.004479
0.982000	-0.004808
0.983000	-0.001520
0.984000	-0.012700
0.985000	-0.004479
0.986000	-0.006452
0.987000	0.013276
0.988000	0.023470
0.989000	0.020510
0.990000	0.012290
0.991000	0.005714
0.992000	0.005056
0.993000	-0.001191
0.994000	-0.008754
0.995000	-0.013029
0.996000	0.008015
0.997000	-0.005137
0.998000	-0.006781
0.999000	0.002097
1.000000	-0.013357
1.001000	-0.017303
1.002000	-0.026510
1.003000	-0.021906
1.004000	-0.032100
1.005000	-0.035388
1.006000	-0.019934
1.007000	-0.005137
1.008000	0.014263
1.009000	0.024456
1.010000	0.024785
1.011000	0.025114
1.012000	0.026429
1.013000	0.022812
1.014000	0.013276
1.015000	0.006700
1.016000	0.025114
1.017000	0.009988
1.018000	-0.004479
1.019000	-0.011056
1.020000	-0.014015
1.021000	-0.010398
1.022000	-0.016974
1.023000	-0.030784
1.024000	-0.042950
1.025000	-0.022893
1.026000	-0.010727
1.027000	0.002426
1.028000	0.033334
1.029000	0.041883
1.030000	0.019524
1.031000	0.011961
1.032000	0.010646
1.033000	0.008344
1.034000	0.003083
1.035000	-0.008425
1.036000	-0.000534
1.037000	0.008673
1.038000	0.015907
1.039000	0.009988
1.040000	-0.003822
1.041000	-0.000863
1.042000	0.013276
1.043000	0.013605
1.044000	0.002097
1.045000	-0.011384
1.046000	-0.020262
1.047000	-0.019934
1.048000	-0.001520
1.049000	0.003741
1.050000	0.001439
1.051000	0.011303
1.052000	0.025771
1.053000	0.017222
1.054000	0.012948
1.055000	0.006043
1.056000	0.005385
1.057000	-0.001849
1.058000	-0.001520
1.059000	0.005056
1.060000	0.014920
1.061000	0.015907
1.062000	0.004398
1.063000	0.007687
1.064000	-0.013686
1.065000	-0.008425
1.066000	-0.010069
1.067000	-0.029798
1.068000	-0.039991
1.069000	-0.026839
1.070000	-0.005137
1.071000	-0.005137
1.072000	-0.001191
1.073000	0.003083
1.074000	-0.001191
1.075000	-0.012700
1.076000	-0.016645
1.077000	-0.006452
1.078000	0.001439
1.079000	0.033005
1.080000	0.017880
1.081000	0.000124
1.082000	0.012948
1.083000	0.014263
1.084000	-0.010069
1.085000	-0.022893
1.086000	-0.021906
1.087000	-0.009412
1.088000	-0.004479
1.089000	0.002097
1.090000	0.018209
1.091000	0.015907
1.092000	0.008015
1.093000	0.015907
1.094000	0.024127
1.095000	0.035307
1.096000	0.034978
1.097000	0.029717
1.098000	0.020181
1.099000	0.001768
1.100000	-0.020591
1.101000	-0.026839
1.102000	-0.024537
1.103000	-0.020920
1.104000	-0.017632
1.105000	-0.018618
1.106000	-0.014344
1.107000	-0.017632
1.108000	-0.013029
1.109000	-0.009412
1.110000	-0.007768
1.111000	0.000124
1.112000	0.009002
1.113000	0.008344
1.114000	0.023141
1.115000	0.018209
1.116000	0.011961
1.117000	0.012948
1.118000	0.011632
1.119000	0.004070
1.120000	-0.011384
1.121000	-0.007110
1.122000	-0.018618
1.123000	-0.011713
1.124000	0.007358
1.125000	0.023798
1.126000	0.029717
1.127000	0.023798
1.128000	0.017551
1.129000	0.005714
1.130000	-0.000534
1.131000	-0.007439
1.132000	-0.018290
1.133000	-0.021906
1.134000	-0.014673
1.135000	-0.014673
1.136000	-0.012371
1.137000	-0.002835
1.138000	0.008344
1.139000	0.006700
1.140000	0.013934
1.141000	0.009659
1.142000	0.012948
1.143000	0.013934
1.144000	-0.021906
1.145000	-0.045581
1.146000	-0.020591
1.147000	0.000124
1.148000	0.007687
1.149000	0.011632
1.150000	0.014592
1.151000	0.010975
1.152000	-0.005137
1.153000	-0.003164
1.154000	-0.010398
1.155000	0.001110
1.156000	-0.003493
1.157000	0.004727
1.158000	-0.007439
1.159000	-0.030456
1.160000	-0.019605
1.161000	-0.008096
1.162000	-0.010069
1.163000	-0.010069
1.164000	0.008673
1.165000	0.016236
1.166000	-0.007768
1.167000	-0.041306
1.168000	-0.042950
1.169000	-0.038018
1.170000	-0.059062
1.171000	-0.083065
1.172000	-0.062350
1.173000	-0.018618
1.174000	0.037937
1.175000	0.096794
1.176000	0.146116
1.177000	0.158282
1.178000	0.156967
1.179000	0.089889
1.180000	-0.001520
1.181000	-0.062679
1.182000	-0.088984
1.183000	-0.058404
1.184000	-0.016974
1.185000	0.001110
1.186000	-0.003493
1.187000	-0.009740
1.188000	0.004727
1.189000	-0.018618
1.190000	-0.011384
1.191000	0.000453
1.192000	0.014263
1.193000	0.008673
1.194000	0.026100
1.195000	0.028402
1.196000	0.020181
1.197000	0.020839
1.198000	0.010317
1.199000	-0.005137
1.200000	-0.011384
1.201000	-0.022564
1.202000	-0.029469
1.203000	-0.020591
1.204000	-0.014344
1.205000	-0.008754
1.206000	-0.011056
1.207000	-0.006452
1.208000	0.000782
1.209000	0.004070
1.210000	-0.002178
1.211000	0.010646
1.212000	0.001439
1.213000	-0.001520
1.214000	0.003741
1.215000	0.006371
1.216000	0.007358
1.217000	-0.002178
1.218000	-0.008754
1.219000	-0.008754
1.220000	-0.000205
1.221000	-0.010727
1.222000	-0.007768
1.223000	-0.010069
1.224000	-0.013029
1.225000	-0.007439
1.226000	-0.007110
1.227000	0.002754
1.228000	-0.004479
1.229000	0.016236
1.230000	0.006043
1.231000	-0.002178
1.232000	-0.000863
1.233000	-0.001191
1.234000	-0.005466
1.235000	-0.002507
1.236000	-0.002835
1.237000	-0.000205
1.238000	-0.004151
1.239000	0.004070
1.240000	-0.012042
1.241000	-0.015659
1.242000	-0.010069
1.243000	-0.007768
1.244000	-0.003822
1.245000	-0.009412
1.246000	-0.013029
1.247000	-0.009083
1.248000	0.003083
1.249000	-0.001191
1.250000	-0.018947
1.251000	-0.033415
1.252000	-0.028483
1.253000	-0.009412
1.254000	-0.003493
1.255000	-0.003164
1.256000	0.021825
1.257000	0.043198
1.258000	0.050103
1.259000	0.037937
1.260000	0.049117
1.261000	0.023470
1.262000	0.016893
1.263000	0.033005
1.264000	0.027086
1.265000	0.025442
1.266000	0.001439
1.267000	-0.018947
1.268000	-0.028483
1.269000	-0.078462
1.270000	-0.111014
1.271000	-0.139292
1.272000	-0.102465
1.273000	-0.031771
1.274000	0.032019
1.275000	0.042541
1.276000	0.069503
1.277000	0.084628
1.278000	0.080683
1.279000	0.019524
1.280000	0.008344
1.281000	0.008673
1.282000	0.027744
1.283000	0.057995
1.284000	0.034320
1.285000	-0.036374
1.286000	-0.050513
1.287000	0.002097
1.288000	-0.031442
1.289000	-0.007768
1.290000	0.050103
1.291000	0.096794
1.292000	0.068517
1.293000	0.017551
1.294000	-0.007439
1.295000	0.026429
1.296000	0.041225
1.297000	-0.020920
1.298000	-0.037361
1.299000	-0.091614
1.300000	-0.167570
1.301000	-0.195190
1.302000	-0.141923
1.303000	-0.065967
1.304000	-0.015330
1.305000	0.077395
1.306000	0.131648
1.307000	0.140855
1.308000	0.085944
1.309000	0.060296
1.310000	0.042541
1.311000	0.002426
1.312000	-0.029140
1.313000	-0.174146
1.314000	-0.224125
1.315000	-0.197820
1.316000	-0.077476
1.317000	-0.002178
1.318000	0.039252
1.319000	0.075422
1.320000	0.090547
1.321000	0.052076
1.322000	-0.075503
1.323000	-0.179078
1.324000	-0.175461
1.325000	-0.144553
1.326000	-0.026839
1.327000	0.116194
1.328000	0.213194
1.329000	0.230949
1.330000	0.227990
1.331000	0.175380
1.332000	0.087917
1.333000	0.037280
1.334000	-0.038676
1.335000	-0.093258
1.336000	-0.065310
1.337000	0.005056
1.338000	-0.068269
1.339000	-0.098848
1.340000	-0.093916
1.341000	-0.117919
1.342000	-0.168885
1.343000	-0.228400
1.344000	-0.152116
1.345000	-0.089642
1.346000	-0.059062
1.347000	0.014592
1.348000	0.075750
1.349000	0.113235
1.350000	0.118825
1.351000	0.142499
1.352000	0.184587
1.353000	0.220756
1.354000	0.162228
1.355000	0.060954
1.356000	-0.036045
1.357000	-0.065638
1.358000	-0.166912
1.359000	-0.266542
1.360000	-0.324742
1.361000	-0.171516
1.362000	0.001768
1.363000	0.041883
1.364000	0.131648
1.365000	0.178011
1.366000	0.160584
1.367000	0.059968
1.368000	-0.070571
1.369000	-0.202424
1.370000	-0.229715
1.371000	-0.157377
1.372000	-0.168227
1.373000	-0.187956
1.374000	-0.208342
1.375000	-0.122851
1.376000	0.001110
1.377000	0.049117
1.378000	0.110276
1.379000	0.192478
1.380000	0.175709
1.381000	0.141513
1.382000	0.128360
1.383000	0.049446
1.384000	0.013605
1.385000	-0.119235
1.386000	-0.248457
1.387000	-0.184997
1.388000	-0.114302
1.389000	-0.224454
1.390000	-0.141923
1.391000	0.095479
1.392000	0.252651
1.393000	0.098438
1.394000	0.158611
1.395000	0.070161
1.396000	-0.019605
1.397000	0.069503
1.398000	-0.230044
1.399000	-0.252403
1.400000	-0.175461
1.401000	-0.084052
1.402000	0.070818
1.403000	0.009659
1.404000	0.140197
1.405000	0.275010
1.406000	0.155652
1.407000	0.027744
1.408000	-0.013029
1.409000	-0.035059
1.410000	-0.306986
1.411000	-0.522028
1.412000	-0.502629
1.413000	-0.193875
1.414000	0.125401
1.415000	0.330908
1.416000	0.491368
1.417000	0.453555
1.418000	0.324661
1.419000	0.164530
1.420000	0.007029
1.421000	-0.068926
1.422000	-0.012371
1.423000	-0.006452
1.424000	-0.141923
1.425000	-0.134031
1.426000	-0.038676
1.427000	-0.044266
1.428000	-0.019605
1.429000	-0.082737
1.430000	-0.117919
1.431000	-0.069913
1.432000	-0.102136
1.433000	-0.266213
1.434000	-0.322111
1.435000	-0.202753
1.436000	-0.049855
1.437000	0.177024
1.438000	0.335183
1.439000	0.380887
1.440000	0.204316
1.441000	-0.071228
1.442000	-0.248457
1.443000	-0.279037
1.444000	-0.239251
1.445000	-0.139621
1.446000	-0.055774
1.447000	-0.123180
1.448000	-0.056432
1.449000	0.309864
1.450000	0.432839
1.451000	0.453883
1.452000	0.233580
1.453000	0.105344
1.454000	-0.043937
1.455000	-0.178421
1.456000	-0.320138
1.457000	-0.195848
1.458000	-0.131401
1.459000	-0.055116
1.460000	0.145130
1.461000	0.126059
1.462000	-0.095889
1.463000	-0.234319
1.464000	-0.261939
1.465000	-0.199465
1.466000	0.011632
1.467000	0.240156
1.468000	0.250020
1.469000	0.087259
1.470000	0.082656
1.471000	0.164201
1.472000	0.187546
1.473000	0.125401
1.474000	0.086601
1.475000	-0.017632
1.476000	-0.265556
1.477000	-0.371433
1.478000	-0.469090
1.479000	-0.219522
1.480000	-0.018290
1.481000	0.082984
1.482000	0.074435
1.483000	0.123428
1.484000	0.037608
1.485000	0.014592
1.486000	0.063584
1.487000	0.003741
1.488000	-0.067282
1.489000	-0.031113
1.490000	0.051090
1.491000	0.079367
1.492000	0.072462
1.493000	0.129676
1.494000	0.178668
1.495000	0.045829
1.496000	-0.052157
1.497000	-0.091286
1.498000	-0.386887
1.499000	-0.429304
1.500000	-0.407931
1.501000	-0.223139
1.502000	0.292108
1.503000	0.459802
1.504000	0.348335
1.505000	0.310522
1.506000	0.249363
1.507000	0.112249
1.508000	0.229963
1.509000	0.107316
1.510000	-0.015988
1.511000	-0.081421
1.512000	-0.129099
1.513000	-0.194532
1.514000	-0.067611
1.515000	-0.000863
1.516000	-0.083065
1.517000	-0.055445
1.518000	-0.051499
1.519000	-0.007439
1.520000	0.014920
1.521000	-0.038347
1.522000	0.068845
1.523000	0.190177
1.524000	0.233251
1.525000	0.446321
1.526000	0.451911
1.527000	0.290135
1.528000	0.031032
1.529000	0.136252
1.530000	0.100411
1.531000	-0.172831
1.532000	-0.493751
1.533000	-0.656512
1.534000	-0.628563
1.535000	-0.279694
1.536000	0.035307
1.537000	0.342745
1.538000	0.225360
1.539000	0.011632
1.540000	-0.060377
1.541000	0.046486
1.542000	0.278298
1.543000	0.173079
1.544000	0.119482
1.545000	0.028073
1.546000	0.019195
1.547000	0.242458
1.548000	-0.002507
1.549000	-0.141594
1.550000	-0.170858
1.551000	-0.025523
1.552000	0.031032
1.553000	0.085615
1.554000	0.260542
1.555000	0.304932
1.556000	0.223058
1.557000	0.211878
1.558000	0.071476
1.559000	-0.165597
1.560000	-0.290545
1.561000	-0.429632
1.562000	-0.622316
1.563000	-0.367487
1.564000	-0.264898
1.565000	-0.041635
1.566000	0.235553
1.567000	0.156967
1.568000	-0.048540
1.569000	0.291779
1.570000	0.562720
1.571000	0.413111
1.572000	0.118167
1.573000	-0.196834
1.574000	-0.377680
1.575000	-0.342497
1.576000	-0.048211
1.577000	0.365762
1.578000	0.445992
1.579000	0.336827
1.580000	0.053063
1.581000	-0.148170
1.582000	-0.288901
1.583000	-0.401355
1.584000	-0.278379
1.585000	-0.147841
1.586000	0.065557
1.587000	0.261200
1.588000	0.175051
1.589000	0.011961
1.590000	-0.150800
1.591000	-0.158034
1.592000	-0.124496
1.593000	0.016564
1.594000	0.127374
1.595000	0.173407
1.596000	0.083313
1.597000	0.173407
1.598000	0.286847
1.599000	0.218455
1.600000	-0.117591
1.601000	-0.259637
1.602000	-0.284955
1.603000	-0.342169
1.604000	-0.018290
1.605000	0.227990
1.606000	0.367735
1.607000	0.244431
1.608000	0.090876
1.609000	-0.145211
1.610000	-0.036045
1.611000	0.209248
1.612000	0.332881
1.613000	0.151377
1.614000	-0.006452
1.615000	-0.162638
1.616000	-0.073859
1.617000	0.159597
1.618000	-0.120221
1.619000	-0.281339
1.620000	-0.213275
1.621000	-0.249773
1.622000	-0.118577
1.623000	0.028730
1.624000	0.073120
1.625000	0.088903
1.626000	0.150719
1.627000	0.061612
1.628000	-0.065967
1.629000	0.003412
1.630000	-0.162966
1.631000	0.129347
1.632000	0.224373
1.633000	0.085615
1.634000	-0.086353
1.635000	-0.097533
1.636000	-0.075831
1.637000	0.131320
1.638000	0.415412
1.639000	0.261529
1.640000	0.147760
1.641000	-0.133373
1.642000	-0.256678
1.643000	-0.302382
1.644000	-0.277064
1.645000	-0.203081
1.646000	-0.122523
1.647000	-0.072543
1.648000	0.115537
1.649000	0.180641
1.650000	0.194123
1.651000	0.076079
1.652000	0.236539
1.653000	0.190506
1.654000	0.040568
1.655000	-0.007110
1.656000	0.003741
1.657000	0.003083
1.658000	-0.126797
1.659000	-0.149156
1.660000	-0.016974
1.661000	0.144143
1.662000	0.368392
1.663000	0.327291
1.664000	0.067201
1.665000	0.004727
1.666000	-0.061035
1.667000	-0.202424
1.668000	-0.346443
1.669000	-0.335592
1.670000	-0.320796
1.671000	-0.134360
1.672000	0.081998
1.673000	0.131320
1.674000	0.203329
1.675000	0.269420
1.676000	0.336827
1.677000	0.207933
1.678000	0.091533
1.679000	-0.145211
1.680000	-0.151129
1.681000	-0.149814
1.682000	-0.144224
1.683000	-0.226098
1.684000	0.035307
1.685000	0.231607
1.686000	0.108960
1.687000	0.161899
1.688000	0.269420
1.689000	0.207604
1.690000	0.204973
1.691000	-0.007439
1.692000	-0.246813
1.693000	-0.403328
1.694000	-0.388531
1.695000	-0.178421
1.696000	-0.028811
1.697000	0.033005
1.698000	-0.016645
1.699000	-0.113974
1.700000	-0.001520
1.701000	0.069832
1.702000	0.215495
1.703000	0.237197
1.704000	0.060296
1.705000	0.103371
1.706000	0.073120
1.707000	-0.021249
1.708000	-0.108713
1.709000	-0.273118
1.710000	-0.079120
1.711000	0.052405
1.712000	0.204316
1.713000	0.235224
1.714000	0.037280
1.715000	-0.049198
1.716000	-0.084709
1.717000	0.293424
1.718000	0.315783
1.719000	0.092849
1.720000	-0.063337
1.721000	-0.280352
1.722000	-0.343813
1.723000	-0.288244
1.724000	-0.228729
1.725000	-0.029798
1.726000	-0.060049
1.727000	0.078052
1.728000	0.156638
1.729000	0.312166
1.730000	0.272708
1.731000	0.152035
1.732000	-0.105424
1.733000	-0.433578
1.734000	-0.525317
1.735000	-0.371762
1.736000	-0.069584
1.737000	0.127703
1.738000	0.134279
1.739000	0.096466
1.740000	0.015907
1.741000	0.171106
1.742000	0.130662
1.743000	0.013605
1.744000	-0.026510
1.745000	-0.113316
1.746000	-0.018618
1.747000	0.055693
1.748000	0.178668
1.749000	0.116852
1.750000	-0.018947
1.751000	-0.075831
1.752000	0.024127
1.753000	0.092520
1.754000	0.066544
1.755000	0.052734
1.756000	0.135594
1.757000	-0.037032
1.758000	-0.047883
1.759000	-0.254705
1.760000	-0.385243
1.761000	-0.098519
1.762000	0.275668
1.763000	0.434484
1.764000	0.209248
1.765000	0.038595
1.766000	-0.192888
1.767000	-0.190587
1.768000	-0.037689
1.769000	0.102384
1.770000	0.139211
1.771000	0.151706
1.772000	0.302630
1.773000	0.237854
1.774000	-0.209329
1.775000	-0.327701
1.776000	-0.478954
1.777000	-0.565431
1.778000	-0.241552
1.779000	0.031690
1.780000	0.249034
1.781000	0.267447
1.782000	0.247061
1.783000	0.190834
1.784000	0.173079
1.785000	0.151377
1.786000	0.175709
1.787000	0.206617
1.788000	-0.004151
1.789000	-0.152116
1.790000	-0.254047
1.791000	-0.286271
1.792000	-0.115289
1.793000	0.093506
1.794000	0.096794
1.795000	0.016564
1.796000	0.043527
1.797000	-0.138634
1.798000	-0.175132
1.799000	-0.125153
1.800000	-0.002507
1.801000	0.303945
1.802000	0.213851
1.803000	-0.100492
1.804000	-0.300738
1.805000	-0.221824
1.806000	0.056351
1.807000	0.290793
1.808000	0.192150
1.809000	-0.010398
1.810000	0.016236
1.811000	0.162228
1.812000	0.088903
1.813000	0.115537
1.814000	-0.126468
1.815000	-0.108713
1.816000	0.009331
1.817000	0.103042
1.818000	-0.036374
1.819000	-0.192231
1.820000	-0.178421
1.821000	-0.037032
1.822000	0.125401
1.823000	0.389108
1.824000	0.590998
1.825000	0.378586
1.826000	-0.053144
1.827000	-0.619685
1.828000	-1.154662
1.829000	-0.849196
1.830000	-0.307643
1.831000	0.020181
1.832000	0.199712
1.833000	0.295396
1.834000	0.268105
1.835000	0.241471
1.836000	0.231936
1.837000	0.317756
1.838000	0.343074
1.839000	0.125401
1.840000	0.073449
1.841000	0.033991
1.842000	0.020510
1.843000	0.198068
1.844000	0.078381
1.845000	-0.145211
1.846000	-0.306328
1.847000	-0.606204
1.848000	-0.538140
1.849000	-0.293176
1.850000	-0.080764
1.851000	0.360830
1.852000	0.458816
1.853000	0.371681
1.854000	0.150062
1.855000	-0.062021
1.856000	-0.128770
1.857000	0.011632
1.858000	0.197082
1.859000	0.077395
1.860000	-0.167899
1.861000	-0.310932
1.862000	-0.260295
1.863000	-0.081421
1.864000	-0.032757
1.865000	0.036293
1.866000	-0.006781
1.867000	0.164858
1.868000	0.198397
1.869000	0.198726
1.870000	-0.024866
1.871000	-0.137319
1.872000	-0.051171
1.873000	0.114221
1.874000	0.250349
1.875000	0.212207
1.876000	0.243444
1.877000	0.106659
1.878000	-0.127455
1.879000	-0.441798
1.880000	-0.705834
1.881000	-0.443771
1.882000	-0.111672
1.883000	0.251664
1.884000	0.447636
1.885000	0.242129
1.886000	0.193794
1.887000	0.083642
1.888000	0.035636
1.889000	-0.011713
1.890000	-0.074187
1.891000	-0.262925
1.892000	-0.339538
1.893000	-0.138306
1.894000	0.121126
1.895000	0.434812
1.896000	0.326633
1.897000	-0.033744
1.898000	-0.276078
1.899000	-0.331975
1.900000	-0.096547
1.901000	0.265475
1.902000	0.356555
1.903000	0.423633
1.904000	0.228977
1.905000	0.024456
1.906000	0.047473
1.907000	-0.149156
1.908000	-0.290216
1.909000	-0.278379
1.910000	-0.216234
1.911000	-0.111672
1.912000	0.018537
1.913000	0.152364
1.914000	0.299013
1.915000	0.320715
1.916000	0.139211
1.917000	0.008673
1.918000	-0.117919
1.919000	-0.146197
1.920000	-0.243854
1.921000	-0.222152
1.922000	-0.126140
1.923000	0.081011
1.924000	0.155652
1.925000	0.099425
1.926000	0.106659
1.927000	0.035636
1.928000	-0.198807
1.929000	-0.139621
1.930000	0.012619
1.931000	0.002097
1.932000	0.147431
1.933000	-0.124167
1.934000	-0.303369
1.935000	-0.084381
1.936000	0.211550
1.937000	0.452568
1.938000	0.554828
1.939000	0.292108
1.940000	0.051090
1.941000	-0.228400
1.942000	-0.327701
1.943000	-0.194861
1.944000	-0.067282
1.945000	0.207604
1.946000	0.102055
1.947000	-0.180393
1.948000	0.026429
1.949000	0.242129
1.950000	0.091862
1.951000	-0.041964
1.952000	-0.125811
1.953000	-0.176777
1.954000	-0.140278
1.955000	-0.034072
1.956000	-0.024208
1.957000	-0.172173
1.958000	-0.191244
1.959000	-0.202753
1.960000	-0.000205
1.961000	0.242458
1.962000	0.209248
1.963000	0.019853
1.964000	-0.096218
1.965000	-0.236620
1.966000	-0.262925
1.967000	0.076737
1.968000	0.304932
1.969000	0.495971
1.970000	0.369708
1.971000	0.121784
1.972000	-0.153431
1.973000	-0.167899
1.974000	-0.001520
1.975000	-0.045581
1.976000	0.113235
1.977000	-0.011056
1.978000	-0.087997
1.979000	-0.199793
1.980000	-0.262925
1.981000	-0.149485
1.982000	-0.049527
1.983000	0.059968
1.984000	0.143814
1.985000	0.083642
1.986000	0.248705
1.987000	0.264817
1.988000	0.231278
1.989000	0.074435
1.990000	-0.139950
1.991000	-0.201109
1.992000	-0.163624
1.993000	-0.172831
1.994000	-0.088655
1.995000	-0.038347
1.996000	0.135265
1.997000	0.232922
1.998000	0.187875
1.999000	-0.032100
2.000000	-0.210315
2.001000	-0.147184
2.002000	-0.031771
2.003000	0.057008
2.004000	0.232593
2.005000	0.293095
2.006000	0.076079
2.007000	-0.205712
2.008000	-0.450019
2.009000	-0.351375
2.010000	-0.028154
2.011000	-0.024866
2.012000	-0.103780
2.013000	-0.070242
2.014000	0.002426
2.015000	0.152692
2.016000	0.133292
2.017000	0.032676
2.018000	-0.045252
2.019000	0.013276
2.020000	0.304603
2.021000	0.311508
2.022000	0.106001
2.023000	-0.027825
2.024000	-0.153431
2.025000	-0.201437
2.026000	-0.180722
2.027000	-0.047554
2.028000	0.019853
2.029000	-0.003822
2.030000	0.095150
2.031000	0.151048
2.032000	0.200370
2.033000	0.196753
2.034000	0.046157
2.035000	-0.159350
2.036000	-0.080435
2.037000	-0.035059
2.038000	-0.110028
2.039000	-0.203410
2.040000	-0.245827
2.041000	0.137238
2.042000	0.284546
2.043000	0.362803
2.044000	0.437772
2.045000	0.001439
2.046000	-0.184997
2.047000	-0.424043
2.048000	-0.407602
2.049000	-0.169214
2.050000	0.037280
2.051000	0.138882
2.052000	0.099754
2.053000	0.110276
2.054000	0.016564
2.055000	-0.151458
2.056000	-0.109370
2.057000	-0.020920
2.058000	0.218455
2.059000	0.320386
2.060000	-0.004808
2.061000	-0.121207
2.062000	0.058324
2.063000	0.131977
2.064000	0.220099
2.065000	0.130991
2.066000	0.010975
2.067000	-0.022893
2.068000	-0.057089
2.069000	-0.272461
2.070000	-0.272132
2.071000	-0.306328
2.072000	-0.166255
2.073000	0.007029
2.074000	0.118167
2.075000	0.198397
2.076000	0.367077
2.077000	0.202343
2.078000	-0.112658
2.079000	-0.119563
2.080000	0.071805
2.081000	0.101069
2.082000	-0.086025
2.083000	-0.144553
2.084000	-0.088655
2.085000	-0.007768
2.086000	0.047802
2.087000	0.140197
2.088000	0.137567
2.089000	0.088245
2.090000	-0.041306
2.091000	-0.174804
2.092000	-0.206041
2.093000	-0.207356
2.094000	-0.172831
2.095000	0.003412
2.096000	0.222400
2.097000	0.259227
2.098000	0.097781
2.099000	-0.023879
2.100000	0.057666
2.101000	0.059639
2.102000	-0.118248
2.103000	-0.357623
2.104000	-0.481585
2.105000	-0.091614
2.106000	0.479202
2.107000	0.538717
2.108000	0.275668
2.109000	0.068517
2.110000	-0.139292
2.111000	-0.042622
2.112000	0.030046
2.113000	0.035636
2.114000	0.066873
2.115000	-0.112987
2.116000	-0.087997
2.117000	-0.063008
2.118000	-0.162638
2.119000	-0.253061
2.120000	-0.191902
2.121000	-0.030784
2.122000	0.091205
2.123000	0.206946
2.124000	0.122771
2.125000	0.005056
2.126000	0.044513
2.127000	0.067530
2.128000	0.121455
2.129000	0.057008
2.130000	-0.082737
2.131000	-0.175132
2.132000	-0.090628
2.133000	0.034649
2.134000	0.081340
2.135000	0.065229
2.136000	0.105015
2.137000	-0.003822
2.138000	-0.151787
2.139000	-0.235963
2.140000	-0.047883
2.141000	0.108960
2.142000	0.248376
2.143000	0.114879
2.144000	-0.008425
2.145000	-0.072543
2.146000	-0.089313
2.147000	-0.012700
2.148000	-0.057089
2.149000	0.115865
2.150000	0.180312
2.151000	0.156967
2.152000	0.079039
2.153000	-0.044266
2.154000	-0.205383
2.155000	-0.275420
2.156000	-0.100164
2.157000	0.097452
2.158000	0.015249
2.159000	0.018866
2.160000	0.045500
2.161000	0.110604
2.162000	0.165845
2.163000	0.122771
2.164000	0.009331
2.165000	-0.011056
2.166000	-0.078133
2.167000	-0.079448
2.168000	-0.016317
2.169000	0.033663
2.170000	0.009988
2.171000	0.107316
2.172000	-0.014015
2.173000	-0.130414
2.174000	-0.188614
2.175000	-0.153102
2.176000	0.113893
2.177000	0.199384
2.178000	0.032019
2.179000	-0.115946
2.180000	-0.125482
2.181000	-0.043608
2.182000	-0.156061
2.183000	-0.162966
2.184000	-0.194204
2.185000	-0.006781
2.186000	0.237526
2.187000	0.354582
2.188000	0.283888
2.189000	0.128689
2.190000	-0.164611
2.191000	-0.329345
2.192000	-0.173160
2.193000	0.043856
2.194000	0.197739
2.195000	0.036293
2.196000	-0.138963
2.197000	-0.246813
2.198000	-0.180393
2.199000	0.090218
2.200000	0.298356
2.201000	0.236868
2.202000	0.265475
2.203000	0.193465
2.204000	0.159269
2.205000	0.033991
2.206000	-0.092930
2.207000	-0.233990
2.208000	-0.273118
2.209000	-0.183024
2.210000	-0.120879
2.211000	-0.076160
2.212000	-0.029140
2.213000	-0.075174
2.214000	-0.011056
2.215000	0.025442
2.216000	0.042869
2.217000	0.104686
2.218000	0.130333
2.219000	0.217797
2.220000	0.303945
2.221000	0.164201
2.222000	-0.008096
2.223000	-0.206370
2.224000	-0.263583
2.225000	-0.124167
2.226000	-0.060706
2.227000	-0.032100
2.228000	-0.049527
2.229000	-0.068598
2.230000	-0.058404
2.231000	-0.040320
2.232000	0.104357
2.233000	0.112577
2.234000	0.048788
2.235000	-0.009083
2.236000	-0.000863
2.237000	0.157296
2.238000	0.223058
2.239000	0.137896
2.240000	0.091533
2.241000	0.148089
2.242000	-0.032428
2.243000	-0.358609
2.244000	-0.466130
2.245000	-0.450348
2.246000	-0.131072
2.247000	0.074106
2.248000	0.084957
2.249000	-0.041964
2.250000	-0.228729
2.251000	-0.221495
2.252000	0.115865
2.253000	0.630784
2.254000	0.799135
2.255000	0.423633
2.256000	-0.026181
2.257000	-0.355321
2.258000	-0.404972
2.259000	-0.203081
2.260000	0.055035
2.261000	0.117838
2.262000	0.173407
2.263000	0.219770
2.264000	0.172092
2.265000	-0.008425
2.266000	-0.213603
2.267000	-0.260952
2.268000	-0.362226
2.269000	-0.260295
2.270000	-0.028811
2.271000	0.048459
2.272000	0.046157
2.273000	0.057337
2.274000	0.145787
2.275000	0.117181
2.276000	0.135265
2.277000	0.035307
2.278000	-0.046238
2.279000	-0.004808
2.280000	-0.055445
2.281000	-0.052486
2.282000	-0.091286
2.283000	-0.031113
2.284000	-0.042293
2.285000	0.031361
2.286000	0.080025
2.287000	0.201028
2.288000	0.263831
2.289000	0.339128
2.290000	0.182943
2.291000	-0.078791
2.292000	-0.247471
2.293000	-0.290216
2.294000	-0.079120
2.295000	0.168804
2.296000	0.010975
2.297000	-0.217220
2.298000	-0.430948
2.299000	-0.428646
2.300000	-0.242539
2.301000	0.025442
2.302000	0.333538
2.303000	0.509452
2.304000	0.324661
2.305000	-0.099177
2.306000	-0.137319
2.307000	-0.046238
2.308000	-0.020591
2.309000	0.214838
2.310000	0.065886
2.311000	-0.112330
2.312000	-0.019605
2.313000	-0.134031
2.314000	-0.207356
2.315000	-0.204068
2.316000	-0.243525
2.317000	-0.066296
2.318000	0.242458
2.319000	0.207933
2.320000	0.290464
2.321000	0.299342
2.322000	0.277312
2.323000	0.219441
2.324000	-0.029798
2.325000	-0.068269
2.326000	-0.301067
2.327000	-0.345786
2.328000	-0.164282
2.329000	0.000782
2.330000	0.082656
2.331000	0.074106
2.332000	0.013276
2.333000	-0.060377
2.334000	0.001768
2.335000	0.103699
2.336000	0.117510
2.337000	0.093835
2.338000	0.021497
2.339000	-0.074187
2.340000	-0.157048
2.341000	-0.263912
2.342000	-0.199793
2.343000	-0.063337
2.344000	0.150391
2.345000	0.052076
2.346000	0.111591
2.347000	0.248048
2.348000	0.223716
2.349000	0.170448
2.350000	0.096137
2.351000	-0.161651
2.352000	-0.095231
2.353000	-0.139621
2.354000	-0.195519
2.355000	-0.099506
2.356000	-0.104109
2.357000	0.014263
2.358000	0.120798
2.359000	0.085286
2.360000	-0.227413
2.361000	-0.394450
2.362000	-0.361897
2.363000	-0.175132
2.364000	0.148747
2.365000	0.163872
2.366000	0.336827
2.367000	0.615330
2.368000	0.687997
2.369000	0.282244
2.370000	-0.262925
2.371000	-0.516439
2.372000	-0.412534
2.373000	-0.274105
2.374000	-0.016974
2.375000	0.233580
2.376000	0.152364
2.377000	-0.092601
2.378000	-0.280023
2.379000	-0.095231
2.380000	0.158611
2.381000	0.451911
2.382000	0.517673
2.383000	0.057008
2.384000	-0.181051
2.385000	-0.240566
2.386000	-0.188943
2.387000	-0.056432
2.388000	0.047802
2.389000	0.137896
2.390000	0.112906
2.391000	-0.116604
2.392000	-0.113316
2.393000	-0.093258
2.394000	-0.060706
2.395000	-0.099177
2.396000	0.054707
2.397000	0.115865
2.398000	0.110933
2.399000	0.077066
2.400000	-0.021578
2.401000	-0.077476
2.402000	-0.131401
2.403000	-0.014673
2.404000	0.114879
2.405000	0.098110
2.406000	-0.008096
2.407000	-0.049198
2.408000	-0.025523
2.409000	0.200041
2.410000	0.195767
2.411000	-0.006781
2.412000	-0.141594
2.413000	-0.365185
2.414000	-0.146855
2.415000	0.101727
2.416000	0.118825
2.417000	0.124086
2.418000	0.033991
2.419000	0.034649
2.420000	-0.101150
2.421000	-0.115618
2.422000	-0.008754
2.423000	0.062598
2.424000	0.032347
2.425000	-0.153760
2.426000	-0.260623
2.427000	-0.247471
2.428000	-0.010069
2.429000	0.161899
2.430000	0.172421
2.431000	-0.058404
2.432000	-0.061035
2.433000	0.192478
2.434000	0.308878
2.435000	0.354582
2.436000	0.144143
2.437000	-0.123509
2.438000	-0.188285
2.439000	0.067201
2.440000	0.065557
2.441000	-0.007110
2.442000	-0.099835
2.443000	-0.172831
2.444000	-0.210315
2.445000	-0.134031
2.446000	-0.003164
2.447000	-0.018947
2.448000	-0.092930
2.449000	0.040239
2.450000	0.118167
2.451000	0.226346
2.452000	0.224044
2.453000	0.128689
2.454000	0.048130
2.455000	-0.125153
2.456000	-0.187956
2.457000	-0.118906
2.458000	-0.059720
2.459000	0.046815
2.460000	0.046486
2.461000	-0.028483
2.462000	-0.067282
2.463000	-0.103780
2.464000	0.021168
2.465000	0.115865
2.466000	0.115208
2.467000	0.048459
2.468000	-0.209000
2.469000	-0.140278
2.470000	0.006700
2.471000	0.027744
2.472000	0.028402
2.473000	0.004398
2.474000	0.146445
2.475000	0.155323
2.476000	0.030046
2.477000	-0.149156
2.478000	-0.182038
2.479000	-0.014673
2.480000	0.103042
2.481000	0.000453
2.482000	-0.169214
2.483000	-0.243196
2.484000	-0.280352
2.485000	-0.210315
2.486000	-0.000534
2.487000	0.347677
2.488000	0.399630
2.489000	0.229634
2.490000	0.149733
2.491000	0.102713
2.492000	0.108960
2.493000	0.029388
2.494000	-0.148499
2.495000	-0.146526
2.496000	-0.042950
2.497000	-0.007110
2.498000	-0.028483
2.499000	-0.072215
2.500000	-0.090299
2.501000	-0.114960
2.502000	-0.074516
2.503000	-0.021249
2.504000	0.006043
2.505000	-0.042622
2.506000	0.027415
2.507000	0.106988
2.508000	0.109289
2.509000	0.040239
2.510000	-0.037361
2.511000	-0.207356
2.512000	-0.036374
2.513000	0.119482
2.514000	0.038595
2.515000	-0.030127
2.516000	-0.146855
2.517000	-0.094245
2.518000	0.007358
2.519000	0.102713
2.520000	0.182943
2.521000	0.160584
2.522000	0.082327
2.523000	0.039581
2.524000	-0.076160
2.525000	-0.114631
2.526000	-0.217878
2.527000	-0.089970
2.528000	0.070490
2.529000	0.061940
2.530000	0.099425
2.531000	0.064900
2.532000	0.063913
2.533000	0.049446
2.534000	0.059639
2.535000	-0.039991
2.536000	-0.144224
2.537000	-0.114631
2.538000	0.005056
2.539000	0.064900
2.540000	0.009659
2.541000	-0.008425
2.542000	0.032347
2.543000	0.126387
2.544000	0.128031
2.545000	0.042212
2.546000	0.044185
2.547000	-0.179078
2.548000	-0.080764
2.549000	-0.117262
2.550000	-0.075831
2.551000	0.025442
2.552000	0.051747
2.553000	0.081340
2.554000	-0.009740
2.555000	0.003083
2.556000	0.119154
2.557000	0.053720
2.558000	-0.023222
2.559000	-0.082079
2.560000	-0.270817
2.561000	-0.245827
2.562000	-0.029140
2.563000	-0.012371
2.564000	-0.020591
2.565000	0.049117
2.566000	0.035964
2.567000	-0.000205
2.568000	0.093835
2.569000	0.117181
2.570000	0.138225
2.571000	0.116523
2.572000	0.087917
2.573000	-0.026510
2.574000	-0.116604
2.575000	-0.039662
2.576000	0.010646
2.577000	0.029388
2.578000	0.047144
2.579000	0.043198
2.580000	0.043527
2.581000	0.092191
2.582000	0.022154
2.583000	-0.001520
2.584000	-0.082737
2.585000	-0.130743
2.586000	-0.143238
2.587000	-0.048869
2.588000	0.046157
2.589000	0.005056
2.590000	-0.043608
2.591000	-0.065967
2.592000	-0.053472
2.593000	0.127374
2.594000	0.247061
2.595000	0.137896
2.596000	0.011303
2.597000	-0.079448
2.598000	-0.098191
2.599000	-0.136990
2.600000	-0.015988
2.601000	-0.163953
2.602000	-0.203739
2.603000	-0.081421
2.604000	-0.001520
2.605000	0.219112
2.606000	0.274681
2.607000	0.294410
2.608000	0.208261
2.609000	0.013605
2.610000	-0.106740
2.611000	-0.186641
2.612000	-0.240566
2.613000	-0.165926
2.614000	-0.050842
2.615000	0.079367
2.616000	0.164530
2.617000	0.061612
2.618000	0.085286
2.619000	0.090547
2.620000	-0.000205
2.621000	-0.004808
2.622000	-0.121865
2.623000	-0.224783
2.624000	-0.164611
2.625000	-0.023879
2.626000	0.008673
2.627000	0.020510
2.628000	0.051418
2.629000	0.054049
2.630000	0.024456
2.631000	0.007029
2.632000	-0.020591
2.633000	-0.018290
2.634000	0.014592
2.635000	0.044842
2.636000	0.012619
2.637000	-0.020262
2.638000	-0.002835
2.639000	0.047144
2.640000	0.035964
2.641000	0.055035
2.642000	-0.052486
2.643000	-0.146526
2.644000	-0.233990
2.645000	-0.173817
2.646000	0.019524
2.647000	0.233580
2.648000	0.320715
2.649000	0.213851
2.650000	0.091205
2.651000	-0.078133
2.652000	-0.000863
2.653000	0.041883
2.654000	0.126387
2.655000	0.019853
2.656000	-0.118248
2.657000	-0.297779
2.658000	-0.247800
2.659000	-0.142251
2.660000	-0.084381
2.661000	-0.053472
2.662000	0.091862
2.663000	0.065557
2.664000	0.085615
2.665000	0.107316
2.666000	0.129347
2.667000	0.106001
2.668000	-0.007768
2.669000	-0.087669
2.670000	-0.085367
2.671000	-0.022893
2.672000	0.117838
2.673000	0.105344
2.674000	0.082984
2.675000	-0.050184
2.676000	-0.145211
2.677000	-0.147184
2.678000	-0.090299
2.679000	0.089232
2.680000	0.127045
2.681000	0.053391
2.682000	-0.050842
2.683000	-0.115618
2.684000	-0.154089
2.685000	-0.146526
2.686000	-0.020591
2.687000	0.121784
2.688000	0.177682
2.689000	0.241800
2.690000	0.116523
2.691000	-0.002507
2.692000	-0.039662
2.693000	-0.001191
2.694000	0.104686
2.695000	0.097123
2.696000	0.007029
2.697000	-0.141594
2.698000	-0.280352
2.699000	-0.264569
2.700000	-0.073201
2.701000	-0.038018
2.702000	-0.022564
2.703000	-0.005466
2.704000	0.047802
2.705000	0.094822
2.706000	0.161899
2.707000	0.101727
2.708000	0.060625
2.709000	0.035964
2.710000	0.038595
2.711000	0.012619
2.712000	-0.003164
2.713000	-0.078791
2.714000	-0.151129
2.715000	-0.132387
2.716000	-0.141594
2.717000	-0.057747
2.718000	0.022483
2.719000	0.128031
2.720000	0.164858
2.721000	0.095150
2.722000	0.124086
2.723000	0.106988
2.724000	-0.041964
2.725000	-0.225441
2.726000	-0.301067
2.727000	-0.224783
2.728000	-0.167241
2.729000	0.052734
2.730000	0.311179
2.731000	0.196753
2.732000	0.090876
2.733000	0.039910
2.734000	-0.040320
2.735000	0.038266
2.736000	-0.003493
2.737000	-0.036703
2.738000	0.044185
2.739000	0.047802
2.740000	-0.000863
2.741000	-0.194532
2.742000	-0.342497
2.743000	-0.176448
2.744000	-0.017632
2.745000	0.269091
2.746000	0.287505
2.747000	0.187217
2.748000	0.110276
2.749000	0.085286
2.750000	0.007029
2.751000	-0.033744
2.752000	-0.081750
2.753000	-0.050184
2.754000	-0.023222
2.755000	-0.003822
2.756000	0.031690
2.757000	0.037280
2.758000	-0.030127
2.759000	-0.067940
2.760000	-0.075831
2.761000	-0.006781
2.762000	0.024127
2.763000	0.005385
2.764000	-0.001849
2.765000	0.020181
2.766000	0.012619
2.767000	0.019524
2.768000	0.063584
2.769000	0.080683
2.770000	0.091205
2.771000	0.149733
2.772000	-0.033744
2.773000	-0.228729
2.774000	-0.244183
2.775000	-0.211631
2.776000	0.038595
2.777000	0.074764
2.778000	0.096137
2.779000	0.014592
2.780000	-0.087669
2.781000	-0.097862
2.782000	-0.011713
2.783000	0.038595
2.784000	0.097452
2.785000	0.034320
2.786000	-0.035717
2.787000	-0.029469
2.788000	-0.082079
2.789000	-0.093916
2.790000	-0.073859
2.791000	-0.001191
2.792000	0.120798
2.793000	0.062598
2.794000	-0.010727
2.795000	-0.114631
2.796000	-0.112658
2.797000	-0.005795
2.798000	0.118825
2.799000	0.167160
2.800000	0.161899
2.801000	0.110933
2.802000	-0.066954
2.803000	-0.046896
2.804000	0.015578
2.805000	0.009331
2.806000	0.041883
2.807000	-0.012700
2.808000	-0.079120
2.809000	0.024127
2.810000	0.197411
2.811000	0.341430
2.812000	0.205960
2.813000	-0.078462
2.814000	-0.253390
2.815000	-0.330989
2.816000	-0.098191
2.817000	-0.045581
2.818000	-0.135675
2.819000	-0.077147
2.820000	-0.051828
2.821000	-0.037032
2.822000	0.063913
2.823000	0.130662
2.824000	0.062269
2.825000	-0.090299
2.826000	-0.265884
2.827000	-0.228400
2.828000	-0.055116
2.829000	0.060954
2.830000	0.114550
2.831000	0.295725
2.832000	0.223716
2.833000	0.197411
2.834000	0.090547
2.835000	-0.098191
2.836000	-0.126797
2.837000	-0.002507
2.838000	0.054049
2.839000	-0.009412
2.840000	0.030703
2.841000	0.047802
2.842000	-0.000205
2.843000	-0.003822
2.844000	-0.066625
2.845000	-0.076818
2.846000	-0.083394
2.847000	-0.036374
2.848000	-0.039991
2.849000	-0.028811
2.850000	0.054707
2.851000	0.131977
2.852000	0.150391
2.853000	0.051418
2.854000	0.013276
2.855000	0.015907
2.856000	0.047473
2.857000	0.015249
2.858000	-0.027496
2.859000	0.172421
2.860000	0.177353
2.861000	0.011632
2.862000	-0.287586
2.863000	-0.414507
2.864000	-0.374392
2.865000	-0.136004
2.866000	0.072791
2.867000	0.062598
2.868000	-0.004479
2.869000	-0.022235
2.870000	-0.066625
2.871000	-0.093916
2.872000	-0.009083
2.873000	0.164530
2.874000	0.258570
2.875000	0.339786
2.876000	0.364776
2.877000	0.139869
2.878000	0.057666
2.879000	-0.012042
2.880000	0.000124
2.881000	0.042869
2.882000	-0.084052
2.883000	-0.136004
2.884000	-0.214919
2.885000	-0.114960
2.886000	-0.141265
2.887000	-0.131401
2.888000	-0.055774
2.889000	0.071147
2.890000	0.253966
2.891000	0.150062
2.892000	0.128360
2.893000	0.140855
2.894000	0.115865
2.895000	0.072791
2.896000	-0.025195
2.897000	-0.003164
2.898000	-0.019934
2.899000	-0.084709
2.900000	-0.164282
2.901000	-0.062679
2.902000	0.096137
2.903000	0.048788
2.904000	-0.031771
2.905000	-0.082408
2.906000	-0.052157
2.907000	-0.063337
2.908000	0.040897
2.909000	-0.027825
2.910000	0.038924
2.911000	0.094822
2.912000	0.065886
2.913000	-0.046238
2.914000	-0.117919
2.915000	-0.223797
2.916000	-0.061693
2.917000	0.009659
2.918000	0.148089
2.919000	0.218783
2.920000	0.111920
2.921000	0.099425
2.922000	0.181957
2.923000	0.158940
2.924000	0.111591
2.925000	0.123099
2.926000	-0.058076
2.927000	-0.192559
2.928000	-0.249444
2.929000	-0.325070
2.930000	-0.347430
2.931000	-0.255034
2.932000	-0.152773
2.933000	0.185245
2.934000	0.510768
2.935000	0.604150
2.936000	0.343732
2.937000	-0.061035
2.938000	-0.168227
2.939000	-0.197820
2.940000	-0.294820
2.941000	-0.181051
2.942000	-0.065638
2.943000	-0.071886
2.944000	-0.103123
2.945000	-0.051828
2.946000	0.136909
2.947000	0.197739
2.948000	0.077066
2.949000	0.061940
2.950000	0.025442
2.951000	0.021497
2.952000	-0.021249
2.953000	-0.047883
2.954000	-0.154417
2.955000	-0.117591
2.956000	-0.007439
2.957000	-0.048869
2.958000	-0.081750
2.959000	0.040239
2.960000	0.084300
2.961000	0.209905
2.962000	0.315125
2.963000	0.119811
2.964000	-0.036374
2.965000	-0.100164
2.966000	-0.051171
2.967000	0.051090
2.968000	0.155980
2.969000	0.238183
2.970000	0.224044
2.971000	0.084957
2.972000	-0.090299
2.973000	-0.424700
2.974000	-0.407602
2.975000	-0.181380
2.976000	-0.047883
2.977000	0.038266
2.978000	0.107316
2.979000	0.115208
2.980000	0.061940
2.981000	0.023798
2.982000	0.008344
2.983000	0.063584
2.984000	0.027415
2.985000	0.010317
2.986000	-0.101150
2.987000	-0.000863
2.988000	0.141842
2.989000	0.089561
2.990000	0.034978
2.991000	-0.008096
2.992000	-0.125811
2.993000	-0.089970
2.994000	-0.058404
2.995000	0.080683
2.996000	0.222071
2.997000	0.087259
2.998000	-0.232346
2.999000	-0.174146
3.000000	-0.207685
3.001000	-0.162966
3.002000	-0.121536
3.003000	0.047473
3.004000	0.212536
3.005000	0.155323
3.006000	0.034320
3.007000	0.059639
3.008000	-0.047883
3.009000	0.086930
3.010000	0.140526
3.011000	0.033663
3.012000	-0.174475
3.013000	-0.216892
3.014000	-0.114302
3.015000	-0.035059
3.016000	0.053720
3.017000	0.231607
3.018000	0.289807
3.019000	0.122771
3.020000	-0.022235
3.021000	-0.052157
3.022000	0.021168
3.023000	0.089561
3.024000	0.079039
3.025000	0.030703
3.026000	-0.085038
3.027000	-0.065310
3.028000	-0.033086
3.029000	-0.012371
3.030000	-0.031442
3.031000	-0.109041
3.032000	-0.020591
3.033000	0.046815
3.034000	0.069503
3.035000	0.023141
3.036000	-0.036703
3.037000	-0.010727
3.038000	-0.015001
3.039000	0.014592
3.040000	-0.032757
3.041000	-0.031113
3.042000	-0.010069
3.043000	-0.050513
3.044000	-0.054459
3.045000	-0.029798
3.046000	-0.015988
3.047000	0.136252
3.048000	0.160255
3.049000	0.086930
3.050000	-0.036374
3.051000	-0.160007
3.052000	-0.155733
3.053000	-0.039005
3.054000	0.004070
3.055000	-0.009412
3.056000	-0.032757
3.057000	-0.062021
3.058000	0.059639
3.059000	0.073778
3.060000	0.050103
3.061000	0.081998
3.062000	0.011303
3.063000	-0.019276
3.064000	0.011632
3.065000	0.117838
3.066000	0.175380
3.067000	0.220427
3.068000	0.044185
3.069000	-0.195519
3.070000	-0.172502
3.071000	-0.144882
3.072000	-0.123838
3.073000	-0.005137
3.074000	0.002754
3.075000	0.096794
3.076000	0.202343
3.077000	0.212536
3.078000	0.057995
3.079000	-0.034072
3.080000	-0.048211
3.081000	-0.003493
3.082000	0.050103
3.083000	0.053063
3.084000	0.022483
3.085000	0.064571
3.086000	-0.040320
3.087000	-0.164611
3.088000	-0.176448
3.089000	-0.138963
3.090000	-0.001520
3.091000	0.102055
3.092000	0.084300
3.093000	0.059310
3.094000	-0.005466
3.095000	-0.046896
3.096000	0.060954
3.097000	0.112249
3.098000	0.020839
3.099000	-0.084709
3.100000	-0.057418
3.101000	-0.015330
3.102000	-0.034730
3.103000	0.033334
3.104000	0.026429
3.105000	0.083971
3.106000	0.064571
3.107000	0.094164
3.108000	0.059968
3.109000	-0.019934
3.110000	-0.019276
3.111000	-0.028483
3.112000	-0.068926
3.113000	-0.018290
3.114000	0.026100
3.115000	-0.036374
3.116000	-0.055116
3.117000	-0.030456
3.118000	-0.011056
3.119000	0.012948
3.120000	0.025771
3.121000	0.002754
3.122000	-0.027825
3.123000	-0.003164
3.124000	-0.038676
3.125000	-0.017961
3.126000	0.111920
3.127000	0.207275
3.128000	0.186560
3.129000	0.073449
3.130000	-0.118577
3.131000	-0.200122
3.132000	-0.155733
3.133000	-0.205712
3.134000	-0.158034
3.135000	0.041554
3.136000	0.049774
3.137000	0.012948
3.138000	0.071147
3.139000	0.102055
3.140000	-0.010069
3.141000	-0.072543
3.142000	-0.030784
3.143000	0.021825
3.144000	0.219770
3.145000	0.241143
3.146000	0.150391
3.147000	0.095150
3.148000	0.086601
3.149000	0.000124
3.150000	-0.125482
3.151000	-0.166912
3.152000	-0.289230
3.153000	-0.279366
3.154000	-0.238922
3.155000	-0.013357
3.156000	0.068188
3.157000	0.113235
3.158000	0.115537
3.159000	0.035636
3.160000	0.012619
3.161000	0.021497
3.162000	0.035636
3.163000	0.025114
3.164000	0.029717
3.165000	0.078052
3.166000	0.028402
3.167000	0.004727
3.168000	0.001439
3.169000	-0.015001
3.170000	-0.015330
3.171000	0.000124
3.172000	0.004727
3.173000	0.007029
3.174000	-0.005137
3.175000	0.040239
3.176000	0.024785
3.177000	-0.010398
3.178000	-0.051499
3.179000	-0.038018
3.180000	-0.021249
3.181000	-0.024537
3.182000	-0.005137
3.183000	-0.001520
3.184000	-0.001849
3.185000	-0.015988
3.186000	-0.020262
3.187000	-0.022564
3.188000	0.008344
3.189000	0.004398
3.190000	-0.003493
3.191000	-0.012371
3.192000	-0.001520
3.193000	0.015578
3.194000	-0.004151
3.195000	-0.020262
3.196000	-0.044594
3.197000	-0.036703
3.198000	-0.024537
3.199000	-0.008754
3.200000	0.032347
3.201000	0.022483
3.202000	0.025114
3.203000	-0.000205
3.204000	-0.037032
3.205000	-0.142580
3.206000	-0.204397
3.207000	-0.146526
3.208000	-0.025523
3.209000	0.133621
3.210000	0.219112
3.211000	0.086601
3.212000	-0.062350
3.213000	-0.114302
3.214000	-0.037361
3.215000	0.082656
3.216000	0.156638
3.217000	0.155980
3.218000	0.100083
3.219000	0.054378
3.220000	0.070818
3.221000	-0.005466
3.222000	-0.117919
3.223000	-0.284627
3.224000	-0.322440
3.225000	-0.253718
3.226000	-0.124824
3.227000	0.043527
3.228000	0.153679
3.229000	0.242458
3.230000	0.106988
3.231000	0.047144
3.232000	-0.028811
3.233000	0.013605
3.234000	0.010646
3.235000	-0.050513
3.236000	-0.045252
3.237000	-0.037361
3.238000	-0.007439
3.239000	-0.007110
3.240000	-0.007110
3.241000	0.007029
3.242000	-0.007768
3.243000	0.004070
3.244000	-0.000863
3.245000	0.011303
3.246000	0.000453
3.247000	-0.002507
3.248000	0.001768
3.249000	0.008673
3.250000	0.003741
3.251000	0.000124
3.252000	0.006700
3.253000	0.005714
3.254000	0.006043
3.255000	0.001439
3.256000	0.006371
3.257000	0.006043
3.258000	0.014920
3.259000	0.012619
3.260000	0.021497
3.261000	-0.007439
3.262000	-0.021906
3.263000	-0.037361
3.264000	-0.050513
3.265000	-0.043279
3.266000	-0.033744
3.267000	-0.036045
3.268000	-0.030127
3.269000	0.005385
3.270000	0.022483
3.271000	0.063913
3.272000	0.049774
3.273000	0.035636
3.274000	0.009331
3.275000	-0.001849
3.276000	-0.000863
3.277000	-0.016974
3.278000	-0.046896
3.279000	-0.036703
3.280000	-0.030127
3.281000	0.011303
3.282000	0.047144
3.283000	0.001110
3.284000	-0.006781
3.285000	-0.021249
3.286000	-0.035388
3.287000	-0.038676
3.288000	-0.027825
3.289000	-0.010069
3.290000	0.013605
3.291000	0.011303
3.292000	0.119811
3.293000	0.062598
3.294000	-0.021249
3.295000	-0.068598
3.296000	-0.070242
3.297000	-0.045910
3.298000	0.066544
3.299000	0.035636
3.300000	0.025771
3.301000	-0.009412
3.302000	-0.016317
3.303000	-0.010398
3.304000	-0.029140
3.305000	-0.062350
3.306000	-0.037361
3.307000	-0.017303
3.308000	0.008673
3.309000	0.023141
3.310000	-0.007768
3.311000	-0.007768
3.312000	-0.030127
3.313000	-0.107069
3.314000	-0.056432
3.315000	0.008673
3.316000	0.077395
3.317000	0.229963
3.318000	0.242129
3.319000	0.130004
3.320000	0.021168
3.321000	-0.075831
3.322000	-0.049198
3.323000	-0.108055
3.324000	-0.152116
3.325000	-0.121865
3.326000	-0.069584
3.327000	-0.034401
3.328000	0.018209
3.329000	0.053391
3.330000	0.030703
3.331000	0.040897
3.332000	0.038266
3.333000	0.025442
3.334000	0.021497
3.335000	-0.015001
3.336000	-0.009412
3.337000	-0.013686
3.338000	-0.030127
3.339000	-0.004808
3.340000	0.018866
3.341000	0.016564
3.342000	0.020181
3.343000	-0.002835
3.344000	-0.018947
3.345000	0.000782
3.346000	-0.035717
3.347000	-0.002178
3.348000	0.088903
3.349000	0.122442
3.350000	0.154994
3.351000	0.191492
3.352000	0.102384
3.353000	0.026758
3.354000	-0.009740
3.355000	-0.039005
3.356000	-0.040977
3.357000	-0.041306
3.358000	-0.012042
3.359000	0.018537
3.360000	0.042541
3.361000	0.033663
3.362000	0.048130
3.363000	0.029059
3.364000	-0.004151
3.365000	-0.009740
3.366000	0.001768
3.367000	-0.008096
3.368000	-0.014673
3.369000	-0.015659
3.370000	-0.011384
3.371000	-0.003822
3.372000	0.000453
3.373000	-0.004151
3.374000	-0.011713
3.375000	-0.014015
3.376000	-0.013686
3.377000	-0.000863
3.378000	-0.003493
3.379000	-0.001520
3.380000	-0.001520
3.381000	-0.014344
3.382000	-0.015988
3.383000	-0.018618
3.384000	-0.024208
3.385000	-0.027825
3.386000	-0.024208
3.387000	-0.016317
3.388000	-0.008096
3.389000	-0.011713
3.390000	-0.010398
3.391000	-0.013686
3.392000	-0.028811
3.393000	-0.004479
3.394000	-0.016974
3.395000	-0.029140
3.396000	-0.009740
3.397000	-0.007768
3.398000	0.023470
3.399000	0.074764
3.400000	0.031690
3.401000	-0.011384
3.402000	-0.006781
3.403000	0.001768
3.404000	-0.017961
3.405000	-0.015330
3.406000	-0.045581
3.407000	-0.052815
3.408000	-0.134031
3.409000	-0.189929
3.410000	-0.123509
3.411000	-0.017303
3.412000	0.174394
3.413000	0.269749
3.414000	0.166502
3.415000	0.050761
3.416000	0.006043
3.417000	-0.017961
3.418000	-0.005466
3.419000	-0.014673
3.420000	-0.036045
3.421000	-0.047225
3.422000	0.027415
3.423000	0.039581
3.424000	0.031690
3.425000	0.012948
3.426000	-0.011384
3.427000	-0.031113
3.428000	-0.018618
3.429000	-0.006123
3.430000	0.012619
3.431000	0.024127
3.432000	0.041554
3.433000	0.035307
3.434000	0.069503
3.435000	0.052734
3.436000	0.048788
3.437000	0.072791
3.438000	0.082327
3.439000	0.077066
3.440000	0.047144
3.441000	0.033991
3.442000	-0.041306
3.443000	-0.068598
3.444000	-0.041635
3.445000	-0.015659
3.446000	-0.011713
3.447000	-0.042293
3.448000	0.010317
3.449000	0.027086
3.450000	0.002426
3.451000	-0.001520
3.452000	-0.015988
3.453000	0.007029
3.454000	0.021168
3.455000	0.046486
3.456000	0.046157
3.457000	-0.000534
3.458000	-0.019934
3.459000	-0.019934
3.460000	-0.020262
3.461000	-0.004808
3.462000	0.005385
3.463000	-0.000863
3.464000	-0.010069
3.465000	-0.007768
3.466000	0.009659
3.467000	0.020839
3.468000	0.019853
3.469000	0.023470
3.470000	0.005056
3.471000	-0.005137
3.472000	0.003412
3.473000	0.012619
3.474000	-0.000534
3.475000	-0.031442
3.476000	-0.001849
3.477000	0.007358
3.478000	-0.003493
3.479000	-0.007439
3.480000	-0.007768
3.481000	-0.018618
3.482000	-0.030784
3.483000	-0.045252
3.484000	-0.077476
3.485000	-0.063337
3.486000	-0.047554
3.487000	-0.066954
3.488000	-0.049527
3.489000	-0.018947
3.490000	0.014592
3.491000	0.067201
3.492000	0.100740
3.493000	0.082656
3.494000	0.057008
3.495000	0.016236
3.496000	-0.027167
3.497000	-0.046567
3.498000	-0.027167
3.499000	-0.003822
3.500000	0.005056
3.501000	0.014920
3.502000	0.006700
3.503000	-0.009412
3.504000	-0.008754
3.505000	-0.008425
3.506000	-0.027167
3.507000	-0.044266
3.508000	-0.058404
3.509000	-0.066296
3.510000	-0.036045
3.511000	0.043198
3.512000	0.059310
3.513000	0.063913
3.514000	0.036293
3.515000	0.004727
3.516000	-0.001849
3.517000	-0.013357
3.518000	-0.046896
3.519000	-0.023222
3.520000	0.010975
3.521000	0.012290
3.522000	-0.025852
3.523000	0.043856
3.524000	0.061612
3.525000	0.064571
3.526000	0.091533
3.527000	0.079039
3.528000	-0.029140
3.529000	-0.148828
3.530000	-0.220508
3.531000	-0.199136
3.532000	-0.151458
3.533000	-0.079777
3.534000	-0.055445
3.535000	-0.019605
3.536000	-0.004479
3.537000	0.022812
3.538000	0.069174
3.539000	0.061283
3.540000	0.017222
3.541000	0.002097
3.542000	0.014263
3.543000	0.026429
3.544000	0.044513
3.545000	0.042212
3.546000	0.041883
3.547000	0.058652
3.548000	0.057995
3.549000	0.079039
3.550000	0.070490
3.551000	0.102713
3.552000	0.074764
3.553000	0.049774
3.554000	0.052076
3.555000	0.025771
3.556000	0.015578
3.557000	-0.015988
3.558000	-0.013686
3.559000	-0.013029
3.560000	-0.029140
3.561000	-0.005137
3.562000	0.049774
3.563000	0.073449
3.564000	0.079696
3.565000	0.091533
3.566000	0.052076
3.567000	-0.012371
3.568000	-0.021578
3.569000	-0.007768
3.570000	-0.019605
3.571000	0.006700
3.572000	-0.000863
3.573000	-0.006781
3.574000	-0.010069
3.575000	-0.005795
3.576000	-0.003493
3.577000	-0.016645
3.578000	-0.023550
3.579000	-0.016317
3.580000	-0.023879
3.581000	-0.041635
3.582000	-0.022893
3.583000	-0.007110
3.584000	0.020181
3.585000	0.052076
3.586000	0.064900
3.587000	0.033334
3.588000	0.010646
3.589000	0.008673
3.590000	-0.008096
3.591000	0.003741
3.592000	0.008344
3.593000	0.021825
3.594000	0.015907
3.595000	0.009331
3.596000	0.000124
3.597000	-0.019934
3.598000	-0.015988
3.599000	0.018209
3.600000	0.052076
3.601000	0.058981
3.602000	0.064242
3.603000	0.056351
3.604000	0.019195
3.605000	-0.027496
3.606000	-0.081421
3.607000	-0.043937
3.608000	0.012619
3.609000	0.012619
3.610000	0.042869
3.611000	0.021497
3.612000	-0.014015
3.613000	-0.015988
3.614000	0.045500
3.615000	0.047473
3.616000	0.047473
3.617000	0.012619
3.618000	-0.036045
3.619000	-0.038676
3.620000	-0.041306
3.621000	-0.015001
3.622000	0.017222
3.623000	-0.019276
3.624000	-0.015001
3.625000	-0.002507
3.626000	-0.015001
3.627000	-0.012371
3.628000	-0.058076
3.629000	-0.043608
3.630000	-0.048540
3.631000	0.035307
3.632000	0.070161
3.633000	0.094164
3.634000	0.083642
3.635000	0.009659
3.636000	-0.043608
3.637000	-0.042293
3.638000	0.006700
3.639000	0.047144
3.640000	0.094822
3.641000	0.095150
3.642000	0.065557
3.643000	0.021825
3.644000	0.031690
3.645000	0.009002
3.646000	0.001768
3.647000	-0.009083
3.648000	0.005714
3.649000	-0.006452
3.650000	-0.008096
3.651000	0.011303
3.652000	0.042869
3.653000	0.029388
3.654000	0.024127
3.655000	0.001768
3.656000	0.025442
3.657000	0.020181
3.658000	-0.006452
3.659000	-0.048211
3.660000	-0.044594
3.661000	-0.025523
3.662000	-0.025195
3.663000	-0.056432
3.664000	-0.075503
3.665000	-0.058733
3.666000	-0.022235
3.667000	0.001439
3.668000	0.007029
3.669000	-0.013686
3.670000	-0.014344
3.671000	-0.001849
3.672000	0.011961
3.673000	0.012290
3.674000	0.000782
3.675000	-0.007768
3.676000	-0.008425
3.677000	-0.028154
3.678000	-0.033415
3.679000	-0.022235
3.680000	-0.025523
3.681000	-0.012700
3.682000	-0.007110
3.683000	-0.012042
3.684000	0.009659
3.685000	0.066544
3.686000	0.035636
3.687000	0.042212
3.688000	0.052405
3.689000	0.027086
3.690000	0.020839
3.691000	0.002754
3.692000	-0.014673
3.693000	-0.025523
3.694000	-0.031113
3.695000	-0.015659
3.696000	-0.006123
3.697000	-0.000534
3.698000	0.019853
3.699000	-0.003164
3.700000	0.003741
3.701000	0.004070
3.702000	-0.008754
3.703000	-0.040977
3.704000	-0.116604
3.705000	-0.170200
3.706000	-0.142251
3.707000	-0.062679
3.708000	0.007358
3.709000	0.082984
3.710000	0.144801
3.711000	0.119811
3.712000	-0.001849
3.713000	-0.045252
3.714000	-0.059391
3.715000	-0.024208
3.716000	0.042541
3.717000	0.110276
3.718000	0.123428
3.719000	0.045500
3.720000	0.006371
3.721000	-0.018947
3.722000	-0.038676
3.723000	-0.030456
3.724000	-0.006123
3.725000	0.026429
3.726000	0.000782
3.727000	-0.014673
3.728000	0.033005
3.729000	0.047144
3.730000	0.039252
3.731000	0.034320
3.732000	0.037608
3.733000	0.002097
3.734000	-0.037361
3.735000	-0.062350
3.736000	-0.069913
3.737000	-0.026510
3.738000	0.013934
3.739000	0.022483
3.740000	0.017222
3.741000	-0.007768
3.742000	-0.015988
3.743000	-0.011056
3.744000	0.004070
3.745000	-0.006123
3.746000	0.035307
3.747000	0.036951
3.748000	0.022154
3.749000	-0.010398
3.750000	-0.015001
3.751000	-0.023222
3.752000	-0.007439
3.753000	0.018537
3.754000	0.027744
3.755000	0.005385
3.756000	-0.003493
3.757000	0.005714
3.758000	0.014592
3.759000	0.043198
3.760000	0.020510
3.761000	0.010317
3.762000	0.023141
3.763000	0.007029
3.764000	0.009659
3.765000	0.007687
3.766000	0.004398
3.767000	-0.009083
3.768000	-0.021249
3.769000	-0.002507
3.770000	-0.007768
3.771000	-0.008425
3.772000	-0.026181
3.773000	-0.004151
3.774000	-0.000863
3.775000	0.012948
3.776000	0.017880
3.777000	0.010975
3.778000	0.014592
3.779000	0.009331
3.780000	-0.011056
3.781000	-0.038018
3.782000	-0.031771
3.783000	-0.026510
3.784000	-0.016317
3.785000	0.008673
3.786000	0.046486
3.787000	0.066873
3.788000	0.045171
3.789000	0.028730
3.790000	0.009002
3.791000	-0.010727
3.792000	-0.026181
3.793000	-0.057089
3.794000	-0.046567
3.795000	-0.048869
3.796000	-0.033086
3.797000	-0.007110
3.798000	-0.007768
3.799000	0.010646
3.800000	0.013934
3.801000	0.018537
3.802000	0.012290
3.803000	-0.011384
3.804000	-0.065310
3.805000	-0.061693
3.806000	-0.060706
3.807000	-0.008754
3.808000	0.038266
3.809000	0.077066
3.810000	0.102713
3.811000	0.081340
3.812000	0.030375
3.813000	-0.035717
3.814000	-0.067611
3.815000	-0.031771
3.816000	0.035307
3.817000	0.063913
3.818000	0.064242
3.819000	0.016236
3.820000	0.008344
3.821000	-0.015001
3.822000	-0.052486
3.823000	-0.064652
3.824000	-0.039005
3.825000	-0.047883
3.826000	-0.031771
3.827000	-0.013686
3.828000	-0.015330
3.829000	0.008673
3.830000	-0.000205
3.831000	-0.035717
3.832000	-0.030456
3.833000	-0.026510
3.834000	-0.021249
3.835000	-0.045581
3.836000	-0.062350
3.837000	-0.053472
3.838000	-0.065638
3.839000	-0.027496
3.840000	-0.025523
3.841000	-0.032428
3.842000	-0.023879
3.843000	-0.031113
3.844000	-0.020591
3.845000	-0.015659
3.846000	-0.013357
3.847000	-0.002835
3.848000	0.005385
3.849000	0.010317
3.850000	0.018209
3.851000	0.009002
3.852000	-0.006452
3.853000	0.001110
3.854000	0.008673
3.855000	0.000124
3.856000	0.012619
3.857000	0.009331
3.858000	0.025771
3.859000	0.023141
3.860000	-0.003164
3.861000	0.013934
3.862000	0.011303
3.863000	0.003083
3.864000	-0.011384
3.865000	-0.003164
3.866000	0.001110
3.867000	0.003412
3.868000	0.010646
3.869000	0.005056
3.870000	0.005056
3.871000	0.023141
3.872000	0.030046
3.873000	0.024785
3.874000	0.010646
3.875000	-0.031771
3.876000	-0.036703
3.877000	-0.057747
3.878000	-0.063994
3.879000	-0.051171
3.880000	-0.023222
3.881000	-0.019934
3.882000	0.008015
3.883000	0.012948
3.884000	-0.025852
3.885000	-0.050513
3.886000	-0.020920
3.887000	0.037608
3.888000	0.063913
3.889000	0.086601
3.890000	0.130662
3.891000	0.141184
3.892000	0.057995
3.893000	-0.019934
3.894000	-0.042293
3.895000	-0.040649
3.896000	-0.060377
3.897000	-0.036374
3.898000	-0.021249
3.899000	-0.019605
3.900000	0.007687
3.901000	0.008015
3.902000	-0.002178
3.903000	0.007029
3.904000	0.015249
3.905000	-0.052486
3.906000	-0.066296
3.907000	-0.088326
3.908000	-0.096547
3.909000	-0.081092
3.910000	-0.086025
3.911000	-0.093587
3.912000	-0.070899
3.913000	-0.012042
3.914000	0.020181
3.915000	0.008673
3.916000	-0.006123
3.917000	0.019195
3.918000	0.017222
3.919000	-0.010069
3.920000	-0.029798
3.921000	-0.036703
3.922000	-0.002178
3.923000	0.011961
3.924000	0.036951
3.925000	0.029388
3.926000	0.022154
3.927000	-0.003493
3.928000	0.006371
3.929000	-0.012700
3.930000	-0.033744
3.931000	-0.012700
3.932000	-0.015988
3.933000	0.020181
3.934000	0.029059
3.935000	0.045500
3.936000	0.035964
3.937000	0.024785
3.938000	0.025114
3.939000	0.017880
3.940000	0.031361
3.941000	0.033991
3.942000	0.016564
3.943000	0.020181
3.944000	0.015578
3.945000	0.009331
3.946000	0.002426
3.947000	-0.000863
3.948000	0.011632
3.949000	0.025114
3.950000	0.037280
3.951000	0.031361
3.952000	0.028073
3.953000	0.013605
3.954000	0.013934
3.955000	-0.005795
3.956000	-0.055116
3.957000	-0.130743
3.958000	-0.206698
3.959000	-0.213275
3.960000	-0.136662
3.961000	-0.020262
3.962000	0.137896
3.963000	0.246404
3.964000	0.320715
3.965000	0.259556
3.966000	0.172421
3.967000	0.073120
3.968000	-0.002507
3.969000	-0.096218
3.970000	-0.112987
3.971000	-0.059720
3.972000	-0.017961
3.973000	-0.015659
3.974000	-0.026181
3.975000	-0.025523
3.976000	-0.020591
3.977000	0.008344
3.978000	0.044842
3.979000	0.079367
3.980000	0.043527
3.981000	0.008673
3.982000	0.003741
3.983000	-0.040977
3.984000	-0.093916
3.985000	-0.133045
3.986000	-0.114302
3.987000	-0.079120
3.988000	-0.012371
3.989000	-0.004151
3.990000	0.001110
3.991000	0.003412
3.992000	0.007358
3.993000	0.020510
3.994000	0.032676
3.995000	0.015907
3.996000	0.009331
3.997000	0.019524
3.998000	0.022154
3.999000	-0.004808
4.000000	-0.028811
4.001000	-0.014015
4.002000	-0.004479
4.003000	-0.016645
4.004000	-0.023222
4.005000	0.015578
4.006000	0.026429
4.007000	-0.046567
4.008000	-0.036374
4.009000	0.010317
4.010000	0.046486
4.011000	0.025442
4.012000	0.033663
4.013000	0.041883
4.014000	0.026429
4.015000	0.011303
4.016000	0.012290
4.017000	0.020510
4.018000	0.016893
4.019000	0.015249
4.020000	-0.001849
4.021000	0.017222
4.022000	0.018209
4.023000	0.038595
4.024000	0.019195
4.025000	0.015249
4.026000	0.008344
4.027000	0.017551
4.028000	-0.005795
4.029000	0.001439
4.030000	0.004070
4.031000	-0.015001
4.032000	0.000124
4.033000	0.011303
4.034000	0.013276
4.035000	0.029717
4.036000	0.004398
4.037000	-0.015988
4.038000	-0.033744
4.039000	-0.060706
4.040000	-0.090628
4.041000	-0.067940
4.042000	-0.090957
4.043000	-0.063008
4.044000	-0.002507
4.045000	0.082984
4.046000	0.115208
4.047000	0.022154
4.048000	-0.024866
4.049000	0.022154
4.050000	0.042212
4.051000	0.025114
4.052000	0.013934
4.053000	0.012948
4.054000	0.060954
4.055000	0.065557
4.056000	0.000453
4.057000	-0.013029
4.058000	-0.041306
4.059000	-0.044594
4.060000	-0.024866
4.061000	-0.051171
4.062000	-0.044266
4.063000	-0.039333
4.064000	-0.006452
4.065000	0.020181
4.066000	0.021825
4.067000	0.014592
4.068000	0.020181
4.069000	-0.001520
4.070000	0.012948
4.071000	-0.000863
4.072000	-0.053801
4.073000	-0.074187
4.074000	-0.083394
4.075000	-0.126140
4.076000	-0.152116
4.077000	-0.073859
4.078000	0.016564
4.079000	0.078710
4.080000	0.119154
4.081000	0.143157
4.082000	0.133621
4.083000	0.121455
4.084000	0.079696
4.085000	0.025442
4.086000	-0.003822
4.087000	-0.023222
4.088000	-0.026181
4.089000	-0.008754
4.090000	-0.011713
4.091000	-0.015001
4.092000	0.004727
4.093000	0.014920
4.094000	0.011632
4.095000	0.009988
4.096000	0.010975
4.097000	0.008015
4.098000	0.011961
4.099000	0.010317
4.100000	0.005385
4.101000	0.001768
4.102000	-0.020591
4.103000	-0.011384
4.104000	-0.008096
4.105000	-0.027825
4.106000	-0.023550
4.107000	-0.023879
4.108000	-0.013029
4.109000	-0.013686
4.110000	0.011303
4.111000	0.081011
4.112000	0.066544
4.113000	0.025114
4.114000	0.020181
4.115000	0.026429
4.116000	0.016236
4.117000	-0.017961
4.118000	-0.021906
4.119000	-0.034072
4.120000	-0.022893
4.121000	-0.032428
4.122000	-0.037689
4.123000	-0.065967
4.124000	-0.052157
4.125000	-0.039991
4.126000	0.001439
4.127000	0.030703
4.128000	0.049446
4.129000	0.086601
4.130000	0.100083
4.131000	0.084957
4.132000	0.086272
4.133000	0.035964
4.134000	-0.039005
4.135000	-0.084381
4.136000	-0.081750
4.137000	-0.078791
4.138000	-0.029798
4.139000	0.020839
4.140000	0.086272
4.141000	0.102713
4.142000	0.096137
4.143000	0.111591
4.144000	0.058981
4.145000	0.011961
4.146000	0.007687
4.147000	-0.019605
4.148000	-0.033086
4.149000	-0.029140
4.150000	-0.045910
4.151000	-0.013357
4.152000	-0.012042
4.153000	-0.024208
4.154000	-0.032100
4.155000	-0.026510
4.156000	-0.032100
4.157000	-0.034730
4.158000	-0.029469
4.159000	0.011961
4.160000	-0.006123
4.161000	-0.030127
4.162000	-0.012371
4.163000	-0.009412
4.164000	-0.007439
4.165000	0.012290
4.166000	0.019524
4.167000	0.066215
4.168000	0.106659
4.169000	0.089561
4.170000	0.045500
4.171000	0.009331
4.172000	-0.048540
4.173000	-0.066296
4.174000	-0.078791
4.175000	-0.065638
4.176000	-0.045910
4.177000	-0.006452
4.178000	0.030046
4.179000	0.057995
4.180000	0.063584
4.181000	0.048459
4.182000	0.014263
4.183000	-0.029140
4.184000	-0.054788
4.185000	-0.040649
4.186000	-0.034730
4.187000	-0.013686
4.188000	0.029388
4.189000	0.020181
4.190000	0.025114
4.191000	0.006043
4.192000	-0.001191
4.193000	-0.058076
4.194000	-0.097204
4.195000	-0.106082
4.196000	-0.032100
4.197000	0.043856
4.198000	0.065886
4.199000	0.059968
4.200000	0.095808
4.201000	0.142170
4.202000	0.100740
4.203000	0.022812
4.204000	-0.034072
4.205000	-0.096875
4.206000	-0.134689
4.207000	-0.113974
4.208000	-0.054130
4.209000	-0.004808
4.210000	0.007029
4.211000	0.008344
4.212000	0.047802
4.213000	0.082984
4.214000	0.071805
4.215000	0.036951
4.216000	-0.047225
4.217000	-0.044594
4.218000	-0.045581
4.219000	-0.098519
4.220000	-0.166255
4.221000	-0.120879
4.222000	-0.071886
4.223000	-0.023222
4.224000	0.061612
4.225000	0.098438
4.226000	0.123428
4.227000	0.117510
4.228000	0.028402
4.229000	-0.038347
4.230000	-0.060049
4.231000	-0.105753
4.232000	-0.111014
4.233000	-0.078133
4.234000	-0.072215
4.235000	-0.059391
4.236000	-0.029798
4.237000	-0.025195
4.238000	-0.021906
4.239000	0.014263
4.240000	0.047144
4.241000	0.035636
4.242000	0.051747
4.243000	-0.012700
4.244000	-0.034401
4.245000	-0.049855
4.246000	-0.061693
4.247000	-0.049855
4.248000	-0.024537
4.249000	-0.050513
4.250000	-0.045910
4.251000	-0.026510
4.252000	-0.024537
4.253000	-0.023222
4.254000	-0.023879
4.255000	0.015907
4.256000	0.032019
4.257000	0.045829
4.258000	-0.038018
4.259000	-0.078462
4.260000	-0.078133
4.261000	-0.088655
4.262000	-0.101150
4.263000	-0.087340
4.264000	-0.062350
4.265000	-0.042293
4.266000	-0.014673
4.267000	0.028073
4.268000	0.110276
4.269000	0.131320
4.270000	0.105672
4.271000	0.077066
4.272000	0.018866
4.273000	-0.022893
4.274000	-0.039005
4.275000	-0.064981
4.276000	-0.063337
4.277000	-0.063008
4.278000	-0.036045
4.279000	-0.005466
4.280000	-0.000534
4.281000	0.025771
4.282000	0.016893
4.283000	0.011303
4.284000	-0.014015
4.285000	-0.048869
4.286000	-0.055774
4.287000	-0.029140
4.288000	-0.034730
4.289000	-0.005137
4.290000	0.028402
4.291000	-0.007110
4.292000	-0.047225
4.293000	-0.049198
4.294000	-0.046896
4.295000	-0.032428
4.296000	-0.028154
4.297000	-0.000534
4.298000	0.007029
4.299000	0.019195
4.300000	0.029717
4.301000	0.064900
4.302000	0.059639
4.303000	0.031690
4.304000	0.008015
4.305000	-0.023550
4.306000	-0.016317
4.307000	-0.011384
4.308000	-0.007768
4.309000	-0.010727
4.310000	-0.002178
4.311000	0.012290
4.312000	0.004070
4.313000	-0.026181
4.314000	-0.049855
4.315000	-0.018618
4.316000	0.007029
4.317000	0.044842
4.318000	0.035636
4.319000	0.039910
4.320000	0.070161
4.321000	0.074435
4.322000	0.008015
4.323000	-0.048211
4.324000	-0.033415
4.325000	-0.020920
4.326000	0.002097
4.327000	0.010975
4.328000	0.056022
4.329000	0.058981
4.330000	0.056351
4.331000	0.017222
4.332000	0.001439
4.333000	-0.041964
4.334000	-0.079777
4.335000	-0.040977
4.336000	-0.054459
4.337000	-0.023879
4.338000	0.029059
4.339000	0.093177
4.340000	0.090876
4.341000	0.093835
4.342000	0.061940
4.343000	0.072462
4.344000	0.033663
4.345000	0.009988
4.346000	-0.012700
4.347000	-0.048540
4.348000	-0.005466
4.349000	0.051090
4.350000	0.037280
4.351000	0.001110
4.352000	0.009002
4.353000	-0.018947
4.354000	0.002426
4.355000	0.010646
4.356000	-0.014015
4.357000	-0.040320
4.358000	-0.021578
4.359000	0.035964
4.360000	0.028073
4.361000	0.039581
4.362000	0.058652
4.363000	0.083313
4.364000	0.107316
4.365000	0.066215
4.366000	0.000453
4.367000	-0.001520
4.368000	0.028730
4.369000	0.035307
4.370000	0.017880
4.371000	0.008673
4.372000	-0.001520
4.373000	0.001768
4.374000	-0.004151
4.375000	-0.017632
4.376000	-0.044266
4.377000	-0.048211
4.378000	-0.007110
4.379000	-0.015330
4.380000	0.016236
4.381000	0.010975
4.382000	0.006700
4.383000	0.007687
4.384000	-0.004808
4.385000	-0.041306
4.386000	-0.102794
4.387000	-0.101808
4.388000	-0.071557
4.389000	-0.048540
4.390000	-0.031442
4.391000	0.015578
4.392000	0.050103
4.393000	0.081340
4.394000	0.086930
4.395000	0.034320
4.396000	0.032347
4.397000	0.025442
4.398000	0.065557
4.399000	0.046157
4.400000	0.003083
4.401000	-0.004151
4.402000	-0.031113
4.403000	-0.035388
4.404000	-0.040649
4.405000	-0.022564
4.406000	-0.028483
4.407000	-0.017632
4.408000	-0.016645
4.409000	-0.016645
4.410000	-0.000205
4.411000	0.024127
4.412000	0.015249
4.413000	0.044513
4.414000	0.047473
4.415000	0.058981
4.416000	0.033991
4.417000	-0.011384
4.418000	-0.063665
4.419000	-0.087669
4.420000	-0.080106
4.421000	-0.059720
4.422000	0.004727
4.423000	0.043856
4.424000	0.072462
4.425000	0.099425
4.426000	0.078052
4.427000	0.034649
4.428000	-0.002178
4.429000	-0.002178
4.430000	0.012290
4.431000	0.008344
4.432000	0.037280
4.433000	0.040568
4.434000	-0.015330
4.435000	-0.025195
4.436000	-0.033086
4.437000	-0.029469
4.438000	-0.030784
4.439000	-0.041964
4.440000	-0.032757
4.441000	-0.015001
4.442000	-0.020920
4.443000	-0.047225
4.444000	-0.016317
4.445000	0.028073
4.446000	0.045829
4.447000	0.043198
4.448000	0.026429
4.449000	0.028402
4.450000	0.007687
4.451000	0.014920
4.452000	0.022154
4.453000	0.007358
4.454000	-0.038018
4.455000	-0.113645
4.456000	-0.149814
4.457000	-0.137977
4.458000	-0.111672
4.459000	-0.052157
4.460000	0.015249
4.461000	0.078710
4.462000	0.093835
4.463000	0.063913
4.464000	-0.027496
4.465000	-0.082737
4.466000	-0.092601
4.467000	-0.063994
4.468000	-0.027496
4.469000	0.046815
4.470000	0.094164
4.471000	0.114221
4.472000	0.092849
4.473000	-0.002507
4.474000	-0.067282
4.475000	-0.117919
4.476000	-0.075831
4.477000	-0.034401
4.478000	-0.016317
4.479000	-0.004151
4.480000	0.020510
4.481000	0.027744
4.482000	-0.060377
4.483000	-0.106411
4.484000	-0.080435
4.485000	-0.022235
4.486000	0.007687
4.487000	0.040897
4.488000	0.085944
4.489000	0.098110
4.490000	0.066873
4.491000	0.030046
4.492000	-0.000863
4.493000	-0.022893
4.494000	-0.030456
4.495000	-0.017961
4.496000	-0.010727
4.497000	-0.026181
4.498000	-0.033415
4.499000	-0.033744
4.500000	-0.034401
4.501000	-0.038018
4.502000	-0.043937
4.503000	-0.040320
4.504000	-0.045910
4.505000	-0.080106
4.506000	-0.058733
4.507000	-0.044923
4.508000	-0.036045
4.509000	-0.029469
4.510000	-0.037032
4.511000	-0.020920
4.512000	-0.022235
4.513000	-0.031442
4.514000	-0.044923
4.515000	-0.036374
4.516000	-0.049855
4.517000	-0.078133
4.518000	-0.044594
4.519000	-0.001849
4.520000	0.011303
4.521000	0.041554
4.522000	0.043527
4.523000	0.040568
4.524000	-0.030127
4.525000	-0.064323
4.526000	-0.064323
4.527000	-0.048211
4.528000	-0.029798
4.529000	-0.041964
4.530000	-0.029798
4.531000	-0.033744
4.532000	-0.023550
4.533000	-0.024537
4.534000	-0.021906
4.535000	0.007687
4.536000	0.000782
4.537000	-0.038018
4.538000	-0.058404
4.539000	-0.052486
4.540000	-0.026839
4.541000	-0.018947
4.542000	-0.024866
4.543000	-0.013357
4.544000	-0.000534
4.545000	0.008015
4.546000	-0.000205
4.547000	-0.012371
4.548000	-0.037361
4.549000	-0.047225
4.550000	-0.063994
4.551000	-0.050842
4.552000	-0.033415
4.553000	-0.026181
4.554000	-0.018290
4.555000	-0.003822
4.556000	-0.001191
4.557000	-0.002507
4.558000	-0.008754
4.559000	-0.031771
4.560000	-0.017632
4.561000	-0.017632
4.562000	-0.039005
4.563000	-0.070571
4.564000	-0.067940
4.565000	-0.036045
4.566000	0.001439
4.567000	0.050432
4.568000	0.081669
4.569000	0.110604
4.570000	0.084957
4.571000	-0.042622
4.572000	-0.126468
4.573000	-0.099177
4.574000	-0.037689
4.575000	0.006043
4.576000	0.072462
4.577000	0.113893
4.578000	0.165845
4.579000	0.150391
4.580000	0.087917
4.581000	0.049774
4.582000	0.018537
4.583000	0.008673
4.584000	-0.000863
4.585000	0.006371
4.586000	-0.018290
4.587000	-0.028811
4.588000	-0.017961
4.589000	0.024127
4.590000	0.051747
4.591000	0.057337
4.592000	0.050761
4.593000	0.076408
4.594000	0.058652
4.595000	0.041225
4.596000	0.013934
4.597000	-0.014015
4.598000	-0.043279
4.599000	-0.033415
4.600000	-0.011384
4.601000	-0.030456
4.602000	-0.064981
4.603000	-0.060706
4.604000	-0.036374
4.605000	-0.012371
4.606000	0.012948
4.607000	0.074106
4.608000	0.118825
4.609000	0.147431
4.610000	0.092520
4.611000	0.011632
4.612000	0.009002
4.613000	0.017222
4.614000	0.030375
4.615000	0.023470
4.616000	0.027744
4.617000	0.049774
4.618000	0.028730
4.619000	-0.002835
4.620000	-0.068598
4.621000	-0.091614
4.622000	-0.048869
4.623000	0.008015
4.624000	0.075093
4.625000	0.091533
4.626000	0.121455
4.627000	0.123428
4.628000	0.081998
4.629000	0.022154
4.630000	0.011632
4.631000	-0.013686
4.632000	-0.014344
4.633000	0.004727
4.634000	0.016236
4.635000	0.061612
4.636000	0.064900
4.637000	0.074106
4.638000	0.049117
4.639000	0.030375
4.640000	-0.024537
4.641000	-0.047554
4.642000	-0.036374
4.643000	-0.059391
4.644000	-0.033086
4.645000	0.051090
4.646000	0.111920
4.647000	0.094822
4.648000	0.084957
4.649000	0.064571
4.650000	0.056679
4.651000	0.044842
4.652000	0.023470
4.653000	0.022154
4.654000	0.008673
4.655000	-0.000205
4.656000	-0.031771
4.657000	-0.043279
4.658000	-0.029140
4.659000	-0.014015
4.660000	-0.008425
4.661000	-0.016645
4.662000	-0.001191
4.663000	0.014592
4.664000	0.006043
4.665000	0.007687
4.666000	0.015249
4.667000	0.011303
4.668000	0.036622
4.669000	0.033005
4.670000	0.022812
4.671000	0.023470
4.672000	-0.000205
4.673000	0.010646
4.674000	0.008015
4.675000	0.016564
4.676000	-0.013029
4.677000	-0.026510
4.678000	-0.033086
4.679000	-0.064652
4.680000	-0.075831
4.681000	-0.043608
4.682000	0.022483
4.683000	0.058981
4.684000	0.074764
4.685000	0.102713
4.686000	0.125730
4.687000	0.108303
4.688000	0.039910
4.689000	0.007029
4.690000	0.004398
4.691000	0.007358
4.692000	0.016236
4.693000	0.016236
4.694000	0.004398
4.695000	0.007687
4.696000	0.001110
4.697000	-0.001191
4.698000	-0.019934
4.699000	-0.015988
4.700000	-0.013686
4.701000	-0.025852
4.702000	-0.029469
4.703000	-0.036045
4.704000	-0.033415
4.705000	-0.048540
4.706000	-0.121865
4.707000	-0.120550
4.708000	-0.058404
4.709000	0.010646
4.710000	0.058324
4.711000	0.091533
4.712000	0.126716
4.713000	0.128031
4.714000	0.064571
4.715000	0.011303
4.716000	-0.024537
4.717000	-0.039991
4.718000	-0.028154
4.719000	-0.000205
4.720000	-0.008754
4.721000	-0.004479
4.722000	0.011632
4.723000	0.032347
4.724000	0.007029
4.725000	-0.015330
4.726000	-0.024866
4.727000	-0.039005
4.728000	-0.036045
4.729000	-0.063008
4.730000	-0.036703
4.731000	-0.000205
4.732000	0.015907
4.733000	-0.002178
4.734000	0.007687
4.735000	0.015249
4.736000	-0.007768
4.737000	-0.042622
4.738000	-0.063665
4.739000	-0.041306
4.740000	-0.026839
4.741000	-0.027496
4.742000	-0.022893
4.743000	-0.017632
4.744000	-0.068269
4.745000	-0.119892
4.746000	-0.117591
4.747000	-0.053144
4.748000	-0.003164
4.749000	0.020510
4.750000	0.045500
4.751000	0.129018
4.752000	0.098110
4.753000	0.050432
4.754000	0.026100
4.755000	-0.003164
4.756000	0.009988
4.757000	0.000124
4.758000	-0.022564
4.759000	-0.040320
4.760000	-0.070899
4.761000	-0.077804
4.762000	-0.048869
4.763000	-0.016974
4.764000	-0.005795
4.765000	0.004727
4.766000	0.030703
4.767000	0.051747
4.768000	0.021168
4.769000	-0.012042
4.770000	-0.000863
4.771000	0.004727
4.772000	0.017551
4.773000	0.031690
4.774000	0.044513
4.775000	0.043856
4.776000	0.029059
4.777000	0.029717
4.778000	0.027744
4.779000	0.024785
4.780000	0.008015
4.781000	-0.011713
4.782000	0.006700
4.783000	0.030046
4.784000	0.046486
4.785000	0.050432
4.786000	0.041554
4.787000	0.082656
4.788000	0.078052
4.789000	0.064571
4.790000	0.033334
4.791000	0.027744
4.792000	0.066873
4.793000	0.082984
4.794000	0.075422
4.795000	0.085944
4.796000	0.111920
4.797000	0.100411
4.798000	0.040239
4.799000	-0.029798
4.800000	-0.050184
4.801000	-0.064652
4.802000	-0.059720
4.803000	-0.033086
4.804000	-0.003493
4.805000	0.044842
4.806000	0.052076
4.807000	0.032347
4.808000	0.066215
4.809000	0.060296
4.810000	0.021497
4.811000	0.022812
4.812000	0.032676
4.813000	0.039252
4.814000	0.023141
4.815000	0.010646
4.816000	0.010975
4.817000	0.008015
4.818000	-0.004151
4.819000	-0.003493
4.820000	-0.007439
4.821000	-0.009083
4.822000	-0.001849
4.823000	-0.009083
4.824000	-0.011056
4.825000	-0.003822
4.826000	-0.007439
4.827000	-0.009740
4.828000	-0.002178
4.829000	-0.000205
4.830000	0.027415
4.831000	0.033005
4.832000	0.042541
4.833000	0.045829
4.834000	-0.016317
4.835000	-0.100492
4.836000	-0.128770
4.837000	-0.190587
4.838000	-0.112658
4.839000	-0.020591
4.840000	0.055693
4.841000	0.157953
4.842000	0.225360
4.843000	0.210563
4.844000	0.151377
4.845000	0.041883
4.846000	-0.034730
4.847000	-0.035717
4.848000	-0.026839
4.849000	-0.032757
4.850000	-0.024866
4.851000	-0.008754
4.852000	0.000782
4.853000	0.014592
4.854000	-0.003493
4.855000	-0.015330
4.856000	-0.016974
4.857000	0.007358
4.858000	-0.007439
4.859000	-0.039333
4.860000	-0.059062
4.861000	-0.107726
4.862000	-0.091943
4.863000	-0.052486
4.864000	-0.010727
4.865000	0.043527
4.866000	0.082656
4.867000	0.119482
4.868000	0.079367
4.869000	0.051418
4.870000	0.009988
4.871000	-0.000205
4.872000	-0.012371
4.873000	-0.023879
4.874000	-0.020920
4.875000	-0.009740
4.876000	-0.014015
4.877000	-0.026839
4.878000	-0.033744
4.879000	-0.037689
4.880000	-0.021249
4.881000	-0.010727
4.882000	-0.056103
4.883000	-0.063665
4.884000	-0.036045
4.885000	-0.000863
4.886000	-0.000863
4.887000	0.017551
4.888000	0.050103
4.889000	0.089889
4.890000	0.038924
4.891000	-0.014015
4.892000	-0.019934
4.893000	0.015907
4.894000	0.013605
4.895000	0.006371
4.896000	0.034978
4.897000	0.070161
4.898000	0.045829
4.899000	0.012948
4.900000	-0.017961
4.901000	-0.037361
4.902000	-0.028811
4.903000	-0.014673
4.904000	0.002426
4.905000	0.018209
4.906000	0.051418
4.907000	0.009002
4.908000	-0.019276
4.909000	-0.040977
4.910000	-0.035388
4.911000	-0.023222
4.912000	-0.013029
4.913000	-0.005466
4.914000	0.001110
4.915000	0.029388
4.916000	0.011303
4.917000	0.022483
4.918000	0.018537
4.919000	0.020181
4.920000	0.029717
4.921000	0.041554
4.922000	0.032676
4.923000	-0.011713
4.924000	-0.037689
4.925000	-0.050184
4.926000	-0.024208
4.927000	0.005056
4.928000	0.007029
4.929000	-0.002507
4.930000	0.004727
4.931000	0.043198
4.932000	0.054378
4.933000	0.047802
4.934000	0.052405
4.935000	0.031032
4.936000	0.043856
4.937000	0.014592
4.938000	0.000453
4.939000	-0.001520
4.940000	0.011961
4.941000	0.039910
4.942000	0.055364
4.943000	0.023470
4.944000	0.027744
4.945000	0.015249
4.946000	-0.003822
4.947000	-0.049855
4.948000	-0.043608
4.949000	-0.037361
4.950000	-0.024866
4.951000	-0.017632
4.952000	0.005385
4.953000	0.036622
4.954000	0.023470
4.955000	-0.019605
4.956000	-0.062679
4.957000	-0.078791
4.958000	-0.118248
4.959000	-0.127455
4.960000	-0.051171
4.961000	0.017551
4.962000	0.065886
4.963000	0.054378
4.964000	0.059310
4.965000	0.074106
4.966000	0.076408
4.967000	0.042869
4.968000	-0.012042
4.969000	-0.013029
4.970000	0.013934
4.971000	-0.007110
4.972000	-0.009083
4.973000	0.022812
4.974000	0.040568
4.975000	0.023470
4.976000	0.024127
4.977000	0.016893
4.978000	0.022483
4.979000	0.010975
4.980000	0.040897
4.981000	0.033334
4.982000	0.012290
4.983000	0.005385
4.984000	0.018209
4.985000	0.036622
4.986000	0.036293
4.987000	0.031690
4.988000	-0.006452
4.989000	0.005385
4.990000	0.025114
4.991000	0.037280
4.992000	0.041554
4.993000	0.059310
4.994000	0.066873
4.995000	0.047144
4.996000	0.012619
4.997000	0.004398
4.998000	-0.014344
4.999000	-0.003822
5.000000	-0.006781
5.001000	-0.015330
5.002000	-0.017961
5.003000	-0.027825
5.004000	-0.008425
5.005000	0.010646
5.006000	0.029717
5.007000	0.064900
5.008000	0.083313
5.009000	0.087917
5.010000	0.043856
5.011000	0.013605
5.012000	-0.019605
5.013000	-0.055445
5.014000	-0.041306
5.015000	-0.007768
5.016000	-0.001849
5.017000	0.017551
5.018000	0.014920
5.019000	0.042541
5.020000	0.055035
5.021000	0.019853
5.022000	-0.003822
5.023000	-0.009740
5.024000	-0.011713
5.025000	0.002426
5.026000	0.003741
5.027000	0.006700
5.028000	0.002426
5.029000	-0.022235
5.030000	-0.040977
5.031000	-0.053144
5.032000	-0.028811
5.033000	-0.021906
5.034000	-0.009412
5.035000	0.014263
5.036000	0.032676
5.037000	0.017222
5.038000	-0.003493
5.039000	-0.062350
5.040000	-0.090957
5.041000	-0.089313
5.042000	-0.072543
5.043000	-0.027167
5.044000	-0.004151
5.045000	0.052734
5.046000	0.078710
5.047000	0.073120
5.048000	0.061283
5.049000	0.034649
5.050000	-0.019605
5.051000	-0.025523
5.052000	-0.001849
5.053000	-0.003822
5.054000	0.045500
5.055000	0.051747
5.056000	0.088574
5.057000	0.061283
5.058000	0.031690
5.059000	-0.004808
5.060000	-0.002507
5.061000	0.008015
5.062000	-0.002835
5.063000	0.003412
5.064000	-0.005466
5.065000	0.009331
5.066000	0.007687
5.067000	0.009988
5.068000	-0.003493
5.069000	-0.025195
5.070000	-0.018947
5.071000	0.004727
5.072000	-0.010727
5.073000	-0.009412
5.074000	0.008344
5.075000	0.006371
5.076000	0.002097
5.077000	-0.010727
5.078000	-0.000205
5.079000	-0.009083
5.080000	0.000124
5.081000	-0.005795
5.082000	-0.012700
5.083000	0.016564
5.084000	0.007029
5.085000	-0.001191
5.086000	0.025114
5.087000	0.000782
5.088000	-0.021906
5.089000	-0.014673
5.090000	-0.036703
5.091000	-0.033415
5.092000	-0.019934
5.093000	-0.027167
5.094000	-0.086353
5.095000	-0.075503
5.096000	-0.040977
5.097000	-0.008425
5.098000	0.016236
5.099000	0.037937
5.100000	0.096794
5.101000	0.116852
5.102000	0.072134
5.103000	0.023798
5.104000	0.023141
5.105000	0.042212
5.106000	0.023470
5.107000	0.024456
5.108000	0.020839
5.109000	0.019195
5.110000	-0.023550
5.111000	-0.052815
5.112000	-0.033744
5.113000	-0.027496
5.114000	-0.015659
5.115000	0.005714
5.116000	0.064900
5.117000	0.054378
5.118000	0.020510
5.119000	-0.025852
5.120000	-0.036374
5.121000	-0.034072
5.122000	-0.043937
5.123000	-0.021906
5.124000	-0.008096
5.125000	0.027086
5.126000	0.016236
5.127000	0.005714
5.128000	0.019195
5.129000	0.030046
5.130000	0.030703
5.131000	0.041225
5.132000	0.017880
5.133000	-0.018618
5.134000	-0.027825
5.135000	-0.035717
5.136000	-0.041306
5.137000	-0.025523
5.138000	-0.025852
5.139000	-0.012700
5.140000	-0.004479
5.141000	-0.012042
5.142000	-0.003493
5.143000	-0.002178
5.144000	-0.029798
5.145000	-0.054788
5.146000	-0.043608
5.147000	-0.021249
5.148000	-0.012371
5.149000	0.005385
5.150000	-0.001520
5.151000	-0.001191
5.152000	-0.000534
5.153000	0.000124
5.154000	0.000782
5.155000	-0.001849
5.156000	-0.000205
5.157000	0.026100
5.158000	0.021825
5.159000	0.004398
5.160000	-0.027167
5.161000	-0.035388
5.162000	-0.018618
5.163000	-0.006123
5.164000	-0.008096
5.165000	-0.003822
5.166000	0.009659
5.167000	0.026758
5.168000	0.019195
5.169000	0.014920
5.170000	0.022154
5.171000	0.028073
5.172000	0.025114
5.173000	-0.017303
5.174000	-0.024208
5.175000	-0.033415
5.176000	-0.054130
5.177000	-0.036045
5.178000	-0.008754
5.179000	0.003741
5.180000	0.020181
5.181000	-0.024208
5.182000	-0.042622
5.183000	-0.038347
5.184000	-0.032428
5.185000	-0.033086
5.186000	0.011961
5.187000	0.050432
5.188000	0.101398
5.189000	0.119811
5.190000	0.107316
5.191000	0.072134
5.192000	0.028730
5.193000	-0.016317
5.194000	-0.035717
5.195000	-0.037032
5.196000	-0.016974
5.197000	-0.016645
5.198000	-0.019276
5.199000	-0.011384
5.200000	-0.005137
5.201000	0.001110
5.202000	-0.009412
5.203000	-0.001849
5.204000	-0.006123
5.205000	0.003083
5.206000	-0.003822
5.207000	-0.010069
5.208000	-0.019276
5.209000	-0.034401
5.210000	-0.056432
5.211000	-0.042293
5.212000	-0.018947
5.213000	-0.000863
5.214000	0.028073
5.215000	0.039581
5.216000	0.056679
5.217000	0.038595
5.218000	0.009988
5.219000	-0.005466
5.220000	-0.007110
5.221000	0.010975
5.222000	0.008015
5.223000	-0.010727
5.224000	-0.019934
5.225000	-0.026839
5.226000	-0.086682
5.227000	-0.102465
5.228000	-0.072215
5.229000	-0.022235
5.230000	0.002097
5.231000	0.037937
5.232000	0.055693
5.233000	0.080683
5.234000	0.098767
5.235000	0.095808
5.236000	0.070161
5.237000	0.035307
5.238000	0.006700
5.239000	-0.015330
5.240000	-0.012042
5.241000	-0.028154
5.242000	-0.048869
5.243000	-0.067282
5.244000	-0.057747
5.245000	-0.050842
5.246000	-0.039991
5.247000	-0.026510
5.248000	-0.007768
5.249000	0.022483
5.250000	0.020181
5.251000	0.026429
5.252000	0.027415
5.253000	0.017880
5.254000	0.007358
5.255000	-0.017303
5.256000	-0.036703
5.257000	-0.021906
5.258000	-0.024537
5.259000	-0.048540
5.260000	-0.062679
5.261000	-0.051499
5.262000	-0.026510
5.263000	0.005714
5.264000	0.026758
5.265000	0.040568
5.266000	0.066215
5.267000	0.042212
5.268000	0.015907
5.269000	-0.024866
5.270000	-0.026510
5.271000	-0.036703
5.272000	-0.035059
5.273000	-0.034072
5.274000	-0.059391
5.275000	-0.040320
5.276000	-0.023879
5.277000	-0.024537
5.278000	-0.008425
5.279000	0.014263
5.280000	0.078710
5.281000	0.073449
5.282000	0.084957
5.283000	0.060625
5.284000	0.027086
5.285000	-0.000863
5.286000	-0.038347
5.287000	-0.049527
5.288000	-0.063337
5.289000	-0.078791
5.290000	-0.060706
5.291000	-0.048869
5.292000	-0.010069
5.293000	0.034978
5.294000	0.054707
5.295000	0.035636
5.296000	0.026758
5.297000	0.026429
5.298000	-0.002507
5.299000	-0.011384
5.300000	-0.031113
5.301000	-0.033415
5.302000	-0.012700
5.303000	-0.021249
5.304000	-0.037361
5.305000	-0.021249
5.306000	-0.021249
5.307000	-0.017303
5.308000	0.003741
5.309000	0.037280
5.310000	0.038924
5.311000	0.049774
5.312000	0.016893
5.313000	0.004070
5.314000	0.008015
5.315000	-0.013357
5.316000	-0.024208
5.317000	-0.045581
5.318000	-0.049855
5.319000	-0.041635
5.320000	-0.031113
5.321000	-0.004479
5.322000	0.012290
5.323000	0.010317
5.324000	-0.004808
5.325000	-0.012042
5.326000	-0.021578
5.327000	-0.030784
5.328000	-0.043279
5.329000	-0.047554
5.330000	-0.019605
5.331000	0.002097
5.332000	-0.010727
5.333000	-0.007110
5.334000	-0.017632
5.335000	-0.013357
5.336000	-0.006123
5.337000	-0.005466
5.338000	0.006700
5.339000	0.005385
5.340000	0.000124
5.341000	-0.028483
5.342000	-0.058404
5.343000	-0.048869
5.344000	0.001439
5.345000	0.031361
5.346000	0.025442
5.347000	0.019524
5.348000	0.020181
5.349000	0.001110
5.350000	-0.008754
5.351000	-0.025195
5.352000	-0.024537
5.353000	-0.021578
5.354000	-0.009412
5.355000	0.042541
5.356000	0.048130
5.357000	0.041883
5.358000	0.050761
5.359000	0.072791
5.360000	0.046486
5.361000	0.009659
5.362000	-0.009412
5.363000	-0.028811
5.364000	-0.028811
5.365000	-0.027167
5.366000	-0.032100
5.367000	-0.034730
5.368000	-0.041306
5.369000	-0.036703
5.370000	-0.017303
5.371000	-0.001520
5.372000	-0.010727
5.373000	-0.025852
5.374000	-0.026181
5.375000	-0.011384
5.376000	-0.041635
5.377000	-0.057089
5.378000	-0.035388
5.379000	-0.034072
5.380000	-0.024537
5.381000	-0.003164
5.382000	-0.000534
5.383000	-0.013357
5.384000	-0.034072
5.385000	-0.019605
5.386000	0.000124
5.387000	0.001439
5.388000	0.019195
5.389000	0.031690
5.390000	0.024127
5.391000	0.011961
5.392000	-0.004151
5.393000	0.013276
5.394000	0.032019
5.395000	0.007029
5.396000	-0.015330
5.397000	-0.014344
5.398000	-0.033415
5.399000	-0.063994
5.400000	-0.063994
5.401000	-0.044266
5.402000	-0.017961
5.403000	0.018537
5.404000	0.029059
5.405000	0.031032
5.406000	0.043198
5.407000	0.027086
5.408000	-0.000205
5.409000	-0.008096
5.410000	-0.006781
5.411000	-0.018290
5.412000	-0.017632
5.413000	-0.010398
5.414000	-0.004808
5.415000	-0.005795
5.416000	-0.023550
5.417000	-0.039991
5.418000	-0.027167
5.419000	-0.004151
5.420000	-0.000534
5.421000	0.026100
5.422000	0.033334
5.423000	0.050432
5.424000	0.045829
5.425000	0.025771
5.426000	0.018537
5.427000	0.008344
5.428000	-0.017303
5.429000	-0.018618
5.430000	-0.008754
5.431000	0.004070
5.432000	-0.006123
5.433000	-0.029469
5.434000	-0.011713
5.435000	0.001768
5.436000	-0.003493
5.437000	-0.007110
5.438000	-0.011056
5.439000	0.001768
5.440000	0.005056
5.441000	-0.044923
5.442000	-0.055774
5.443000	-0.035388
5.444000	-0.013029
5.445000	-0.008425
5.446000	0.039910
5.447000	0.079039
5.448000	0.119811
5.449000	0.116194
5.450000	0.048459
5.451000	0.000453
5.452000	-0.009083
5.453000	0.001110
5.454000	0.028730
5.455000	0.004727
5.456000	0.013605
5.457000	0.022812
5.458000	0.027415
5.459000	0.060296
5.460000	0.029059
5.461000	0.003412
5.462000	-0.006452
5.463000	0.001439
5.464000	-0.018618
5.465000	-0.038676
5.466000	-0.036703
5.467000	-0.081750
5.468000	-0.078462
5.469000	-0.046896
5.470000	0.009331
5.471000	0.043856
5.472000	0.071147
5.473000	0.074106
5.474000	0.108632
5.475000	0.117838
5.476000	0.064242
5.477000	0.021168
5.478000	0.011632
5.479000	0.016893
5.480000	0.009659
5.481000	0.008015
5.482000	-0.014344
5.483000	-0.024537
5.484000	-0.007768
5.485000	0.019524
5.486000	0.008344
5.487000	0.007029
5.488000	0.019195
5.489000	0.028073
5.490000	0.007358
5.491000	0.006700
5.492000	0.013276
5.493000	-0.004479
5.494000	-0.018290
5.495000	-0.025852
5.496000	-0.012371
5.497000	-0.004808
5.498000	0.017551
5.499000	0.026429
5.500000	0.020510
5.501000	0.026758
5.502000	0.023141
5.503000	0.018866
5.504000	-0.007768
5.505000	-0.023222
5.506000	-0.018290
5.507000	-0.003493
5.508000	0.009331
5.509000	0.011303
5.510000	0.004070
5.511000	0.008015
5.512000	0.005385
5.513000	0.005385
5.514000	-0.003164
5.515000	-0.016974
5.516000	0.004398
5.517000	0.013934
5.518000	0.034320
5.519000	0.054378
5.520000	0.048459
5.521000	0.018209
5.522000	0.004070
5.523000	-0.006781
5.524000	-0.026510
5.525000	-0.039005
5.526000	-0.018947
5.527000	-0.004151
5.528000	0.021825
5.529000	0.040568
5.530000	0.061940
5.531000	0.035964
5.532000	0.038595
5.533000	0.028073
5.534000	0.007687
5.535000	-0.015330
5.536000	-0.019276
5.537000	-0.038347
5.538000	-0.047225
5.539000	-0.054788
5.540000	-0.038347
5.541000	-0.008754
5.542000	0.019195
5.543000	0.029059
5.544000	0.019195
5.545000	0.029717
5.546000	0.025771
5.547000	0.013934
5.548000	-0.003493
5.549000	-0.011056
5.550000	0.024127
5.551000	0.053063
5.552000	0.072134
5.553000	0.042212
5.554000	0.033991
5.555000	0.000124
5.556000	-0.013686
5.557000	-0.007439
5.558000	-0.006452
5.559000	0.017222
5.560000	0.033991
5.561000	0.025771
5.562000	0.008015
5.563000	-0.006123
5.564000	-0.009740
5.565000	-0.034401
5.566000	-0.024208
5.567000	-0.033086
5.568000	-0.022235
5.569000	-0.010069
5.570000	0.001110
5.571000	0.013276
5.572000	0.023798
5.573000	0.022154
5.574000	0.025771
5.575000	0.022812
5.576000	0.007687
5.577000	-0.016974
5.578000	-0.031771
5.579000	-0.041635
5.580000	-0.027496
5.581000	-0.021578
5.582000	-0.015988
5.583000	-0.013686
5.584000	0.027086
5.585000	0.025114
5.586000	0.011303
5.587000	0.014592
5.588000	0.010975
5.589000	0.026100
5.590000	0.012290
5.591000	0.007358
5.592000	0.011303
5.593000	0.006700
5.594000	0.004727
5.595000	0.001439
5.596000	-0.039991
5.597000	-0.029140
5.598000	0.002097
5.599000	0.010317
5.600000	0.008344
5.601000	0.018866
5.602000	0.036622
5.603000	0.048788
5.604000	0.016564
5.605000	-0.010069
5.606000	-0.020920
5.607000	-0.011713
5.608000	-0.001191
5.609000	0.001439
5.610000	0.003083
5.611000	-0.000534
5.612000	-0.012371
5.613000	-0.013686
5.614000	-0.029469
5.615000	-0.015988
5.616000	-0.006123
5.617000	-0.007439
5.618000	-0.013686
5.619000	0.020510
5.620000	0.060954
5.621000	0.055693
5.622000	0.016564
5.623000	-0.006452
5.624000	-0.014015
5.625000	-0.020591
5.626000	-0.025523
5.627000	-0.043608
5.628000	-0.022893
5.629000	0.001110
5.630000	0.013934
5.631000	0.001439
5.632000	0.013934
5.633000	0.052734
5.634000	0.072462
5.635000	0.042869
5.636000	0.014263
5.637000	0.008673
5.638000	0.003741
5.639000	0.002097
5.640000	-0.002835
5.641000	-0.011056
5.642000	-0.011056
5.643000	-0.015330
5.644000	-0.020591
5.645000	-0.032100
5.646000	-0.047883
5.647000	-0.029140
5.648000	-0.000205
5.649000	0.010646
5.650000	-0.004151
5.651000	0.041883
5.652000	0.081011
5.653000	0.066544
5.654000	0.000782
5.655000	-0.013357
5.656000	-0.021578
5.657000	-0.014015
5.658000	-0.012042
5.659000	0.007358
5.660000	0.051418
5.661000	0.065229
5.662000	0.048459
5.663000	0.041554
5.664000	0.033991
5.665000	0.034649
5.666000	0.016564
5.667000	-0.005795
5.668000	-0.033415
5.669000	-0.035388
5.670000	-0.026839
5.671000	-0.036374
5.672000	-0.054788
5.673000	-0.021578
5.674000	-0.001520
5.675000	-0.032757
5.676000	-0.042950
5.677000	-0.012700
5.678000	0.041883
5.679000	0.035964
5.680000	0.027744
5.681000	0.066873
5.682000	0.078710
5.683000	0.045171
5.684000	0.006043
5.685000	-0.029798
5.686000	-0.011056
5.687000	-0.011713
5.688000	-0.012700
5.689000	-0.009740
5.690000	-0.006781
5.691000	-0.007110
5.692000	-0.004151
5.693000	-0.009740
5.694000	-0.014344
5.695000	-0.011384
5.696000	0.005385
5.697000	0.037608
5.698000	0.048788
5.699000	0.033991
5.700000	0.012619
5.701000	-0.001849
5.702000	-0.017632
5.703000	-0.012371
5.704000	-0.023222
5.705000	-0.011056
5.706000	-0.025195
5.707000	-0.018947
5.708000	-0.011384
5.709000	-0.009412
5.710000	-0.018290
5.711000	-0.011056
5.712000	0.022154
5.713000	0.059968
5.714000	0.040897
5.715000	0.032019
5.716000	0.008015
5.717000	-0.003822
5.718000	-0.033086
5.719000	-0.058733
5.720000	-0.058733
5.721000	-0.049855
5.722000	-0.036374
5.723000	-0.014673
5.724000	0.005056
5.725000	0.020181
5.726000	0.028402
5.727000	0.022483
5.728000	0.018866
5.729000	-0.021578
5.730000	-0.026510
5.731000	0.000124
5.732000	0.008673
5.733000	0.003741
5.734000	0.000453
5.735000	0.008015
5.736000	-0.004808
5.737000	-0.018618
5.738000	-0.026510
5.739000	-0.025523
5.740000	-0.016974
5.741000	0.011961
5.742000	0.030375
5.743000	0.037280
5.744000	0.032347
5.745000	0.014920
5.746000	-0.006452
5.747000	-0.024866
5.748000	-0.019934
5.749000	-0.013357
5.750000	-0.024537
5.751000	-0.034401
5.752000	-0.025852
5.753000	-0.013357
5.754000	-0.003164
5.755000	0.002097
5.756000	0.010317
5.757000	0.002097
5.758000	-0.017303
5.759000	-0.036045
5.760000	-0.039005
5.761000	-0.009740
5.762000	0.014592
5.763000	0.014592
5.764000	0.019853
5.765000	0.032347
5.766000	0.027415
5.767000	0.023470
5.768000	0.018866
5.769000	0.015578
5.770000	0.000453
5.771000	-0.022235
5.772000	-0.026181
5.773000	-0.043279
5.774000	-0.010727
5.775000	0.004398
5.776000	0.001110
5.777000	0.001110
5.778000	0.012619
5.779000	-0.004479
5.780000	-0.002178
5.781000	-0.008096
5.782000	-0.008754
5.783000	0.011303
5.784000	-0.001520
5.785000	-0.019605
5.786000	-0.022235
5.787000	-0.008096
5.788000	0.000453
5.789000	0.005385
5.790000	0.007687
5.791000	-0.021578
5.792000	-0.012700
5.793000	-0.018618
5.794000	-0.005466
5.795000	-0.006452
5.796000	-0.025852
5.797000	-0.007110
5.798000	0.036622
5.799000	0.048130
5.800000	0.052734
5.801000	0.048788
5.802000	0.047144
5.803000	0.025442
5.804000	0.006700
5.805000	-0.015001
5.806000	-0.019605
5.807000	-0.013357
5.808000	0.012290
5.809000	0.023141
5.810000	0.013605
5.811000	0.026100
5.812000	0.011632
5.813000	0.000782
5.814000	-0.016645
5.815000	-0.029140
5.816000	-0.038676
5.817000	-0.021906
5.818000	-0.022235
5.819000	0.008673
5.820000	0.025442
5.821000	0.073120
5.822000	0.080354
5.823000	0.066215
5.824000	0.064571
5.825000	0.041554
5.826000	-0.000205
5.827000	-0.018290
5.828000	-0.022235
5.829000	-0.026510
5.830000	-0.023222
5.831000	-0.007110
5.832000	0.020839
5.833000	0.007358
5.834000	0.012619
5.835000	0.000782
5.836000	0.007358
5.837000	0.005056
5.838000	-0.002178
5.839000	0.002097
5.840000	-0.000534
5.841000	-0.005137
5.842000	-0.008754
5.843000	-0.017632
5.844000	-0.029469
5.845000	-0.021906
5.846000	-0.012042
5.847000	-0.012371
5.848000	0.017551
5.849000	0.022483
5.850000	0.005385
5.851000	-0.008754
5.852000	-0.034072
5.853000	-0.018618
5.854000	-0.002835
5.855000	0.014920
5.856000	0.014592
5.857000	0.027415
5.858000	0.033334
5.859000	0.039910
5.860000	0.040897
5.861000	0.022812
5.862000	-0.004151
5.863000	-0.027496
5.864000	-0.047554
5.865000	-0.056432
5.866000	-0.031771
5.867000	-0.023879
5.868000	-0.022893
5.869000	-0.001191
5.870000	0.005714
5.871000	0.015578
5.872000	0.012948
5.873000	-0.011384
5.874000	-0.022564
5.875000	-0.022235
5.876000	-0.010069
5.877000	-0.009412
5.878000	0.003741
5.879000	-0.017961
5.880000	-0.018618
5.881000	-0.025195
5.882000	-0.014344
5.883000	-0.013357
5.884000	-0.016317
5.885000	-0.018618
5.886000	-0.002178
5.887000	-0.008425
5.888000	-0.028154
5.889000	-0.050513
5.890000	-0.014344
5.891000	0.000124
5.892000	-0.018947
5.893000	-0.015659
5.894000	-0.001520
5.895000	0.000124
5.896000	0.024785
5.897000	0.002754
5.898000	-0.002507
5.899000	0.018537
5.900000	0.049774
5.901000	0.028073
5.902000	0.012290
5.903000	0.030375
5.904000	0.018537
5.905000	0.000124
5.906000	-0.016645
5.907000	-0.059391
5.908000	-0.068926
5.909000	-0.075174
5.910000	-0.031113
5.911000	-0.002835
5.912000	0.038266
5.913000	0.054049
5.914000	0.090876
5.915000	0.077066
5.916000	0.029059
5.917000	-0.000863
5.918000	-0.017303
5.919000	-0.025523
5.920000	-0.015659
5.921000	-0.013029
5.922000	-0.035717
5.923000	-0.035717
5.924000	-0.004151
5.925000	-0.004151
5.926000	-0.021906
5.927000	-0.029469
5.928000	-0.032428
5.929000	0.011303
5.930000	0.007029
5.931000	0.012619
5.932000	0.005056
5.933000	0.001110
5.934000	-0.000863
5.935000	-0.005466
5.936000	-0.014344
5.937000	-0.014015
5.938000	-0.036045
5.939000	-0.035059
5.940000	-0.026181
5.941000	0.014263
5.942000	0.012948
5.943000	0.006371
5.944000	0.033005
5.945000	0.036293
5.946000	0.012290
5.947000	-0.006123
5.948000	-0.018290
5.949000	-0.020920
5.950000	-0.004479
5.951000	0.001439
5.952000	0.004727
5.953000	0.010317
5.954000	0.011632
5.955000	0.003741
5.956000	-0.020920
5.957000	-0.040649
5.958000	-0.033744
5.959000	-0.026181
5.960000	-0.026839
5.961000	-0.030784
5.962000	-0.006123
5.963000	0.026758
5.964000	0.035307
5.965000	0.026100
5.966000	0.004727
5.967000	-0.006452
5.968000	-0.006452
5.969000	-0.015659
5.970000	0.003083
5.971000	-0.008425
5.972000	-0.013357
5.973000	-0.015001
5.974000	-0.015330
5.975000	-0.017303
5.976000	-0.006123
5.977000	-0.005466
5.978000	-0.004808
5.979000	-0.034730
5.980000	-0.058404
5.981000	-0.044594
5.982000	-0.020920
5.983000	0.004398
5.984000	0.010646
5.985000	0.013934
5.986000	0.012290
5.987000	0.009988
5.988000	-0.001849
5.989000	-0.008425
5.990000	-0.030456
5.991000	-0.050513
5.992000	-0.039991
5.993000	-0.014344
5.994000	-0.004479
5.995000	-0.033415
5.996000	-0.014344
5.997000	0.005056
5.998000	0.003741
5.999000	0.020510
6.000000	0.019195
6.001000	0.033005
6.002000	0.049446
6.003000	0.005056
6.004000	-0.001849
6.005000	-0.010398
6.006000	-0.019276
6.007000	-0.024866
6.008000	-0.002507
6.009000	0.030375
6.010000	0.030375
6.011000	0.006700
6.012000	-0.003164
6.013000	0.010317
6.014000	0.030703
6.015000	0.035636
6.016000	0.032676
6.017000	0.023798
6.018000	0.017880
6.019000	0.006371
6.020000	-0.012700
6.021000	-0.023222
6.022000	-0.037032
6.023000	-0.031442
6.024000	-0.011384
6.025000	-0.004151
6.026000	-0.001849
6.027000	-0.010398
6.028000	-0.011056
6.029000	-0.029798
6.030000	-0.008754
6.031000	0.002097
6.032000	0.017551
6.033000	0.034649
6.034000	0.047144
6.035000	0.051090
6.036000	0.030703
6.037000	-0.007439
6.038000	-0.013686
6.039000	0.012290
6.040000	0.009988
6.041000	0.007358
6.042000	-0.002835
6.043000	-0.006452
6.044000	0.008673
6.045000	0.016564
6.046000	0.004070
6.047000	0.002097
6.048000	0.004070
6.049000	0.004070
6.050000	-0.001849
6.051000	0.002426
6.052000	0.005714
6.053000	0.000782
6.054000	0.000124
6.055000	-0.000863
6.056000	0.008015
6.057000	0.002754
6.058000	-0.006781
6.059000	-0.001520
6.060000	0.007029
6.061000	-0.013357
6.062000	-0.018947
6.063000	-0.017632
6.064000	-0.004151
6.065000	0.003412
6.066000	0.001110
6.067000	0.007687
6.068000	0.009659
6.069000	0.031032
6.070000	0.022483
6.071000	-0.004151
6.072000	-0.014673
6.073000	-0.022893
6.074000	-0.033744
6.075000	-0.053801
6.076000	-0.051171
6.077000	-0.048211
6.078000	-0.019276
6.079000	0.028730
6.080000	0.065886
6.081000	0.086930
6.082000	0.089561
6.083000	0.037608
6.084000	-0.002835
6.085000	-0.033415
6.086000	-0.059720
6.087000	-0.064981
6.088000	-0.060706
6.089000	-0.042293
6.090000	-0.004151
6.091000	0.021497
6.092000	0.015907
6.093000	0.010975
6.094000	-0.018618
6.095000	-0.022893
6.096000	-0.033415
6.097000	-0.044923
6.098000	-0.034072
6.099000	0.001768
6.100000	0.056351
6.101000	0.071805
6.102000	0.059639
6.103000	0.067859
6.104000	0.039910
6.105000	0.002426
6.106000	-0.023550
6.107000	-0.026510
6.108000	-0.045252
6.109000	-0.064652
6.110000	-0.047225
6.111000	-0.027167
6.112000	-0.004808
6.113000	0.005385
6.114000	0.028402
6.115000	0.046815
6.116000	0.048459
6.117000	0.029059
6.118000	0.004398
6.119000	-0.023879
6.120000	-0.038018
6.121000	-0.027825
6.122000	-0.036374
6.123000	-0.016645
6.124000	0.006043
6.125000	0.008344
6.126000	0.010975
