LabVIEW Measurement	
Writer_Version	2
Reader_Version	2
Separator	Tab
Decimal_Separator	.
Multi_Headings	Yes
X_Columns	One
Time_Pref	Absolute
Operator	absf624
Date	2017/04/21
Time	15:09:54.628673930034826969
***End_of_Header***	
	
Channels	1	
Samples	1000	
Date	2017/04/21	
Time	15:09:54.628673930034826969	
Y_Unit_Label	Volts	
X_Dimension	Time	
X0	0.0000000000000000E+0	
Delta_X	0.001000	
***End_of_Header***		
X_Value	Voltage	Comment
0.000000	0.210892
0.001000	0.222729
0.002000	0.219112
0.003000	0.195109
0.004000	0.194123
0.005000	0.187546
0.006000	0.161241
0.007000	0.162557
0.008000	0.178340
0.009000	0.184916
0.010000	0.186560
0.011000	0.189519
0.012000	0.200699
0.013000	0.205302
0.014000	0.218783
0.015000	0.232922
0.016000	0.221414
0.017000	0.228977
0.018000	0.221414
0.019000	0.214180
0.020000	0.214180
0.021000	0.212865
0.022000	0.224702
0.023000	0.222400
0.024000	0.210892
0.025000	0.205302
0.026000	0.201356
0.027000	0.207933
0.028000	0.220756
0.029000	0.222729
0.030000	0.216482
0.031000	0.218126
0.032000	0.210563
0.033000	0.215824
0.034000	0.208919
0.035000	0.207933
0.036000	0.211550
0.037000	0.196095
0.038000	0.190506
0.039000	0.201028
0.040000	0.207275
0.041000	0.205960
0.042000	0.190834
0.043000	0.178340
0.044000	0.167160
0.045000	0.170777
0.046000	0.155323
0.047000	0.145458
0.048000	0.142499
0.049000	0.150391
0.050000	0.151706
0.051000	0.146445
0.052000	0.160255
0.053000	0.167489
0.054000	0.182943
0.055000	0.194451
0.056000	0.202014
0.057000	0.192150
0.058000	0.201028
0.059000	0.197082
0.060000	0.204644
0.061000	0.195438
0.062000	0.186231
0.063000	0.178997
0.064000	0.170448
0.065000	0.171763
0.066000	0.166831
0.067000	0.154008
0.068000	0.154665
0.069000	0.163214
0.070000	0.159926
0.071000	0.173736
0.072000	0.189190
0.073000	0.191163
0.074000	0.194451
0.075000	0.215824
0.076000	0.225360
0.077000	0.226675
0.078000	0.224044
0.079000	0.221085
0.080000	0.225360
0.081000	0.227661
0.082000	0.231278
0.083000	0.229305
0.084000	0.240156
0.085000	0.236210
0.086000	0.230621
0.087000	0.244431
0.088000	0.239498
0.089000	0.220756
0.090000	0.211550
0.091000	0.196095
0.092000	0.191163
0.093000	0.192807
0.094000	0.196753
0.095000	0.210563
0.096000	0.214838
0.097000	0.214180
0.098000	0.238183
0.099000	0.259556
0.100000	0.284546
0.101000	0.278627
0.102000	0.281258
0.103000	0.255281
0.104000	0.222729
0.105000	0.222729
0.106000	0.225688
0.107000	0.192807
0.108000	0.168804
0.109000	0.181628
0.110000	0.180970
0.111000	0.191821
0.112000	0.203329
0.113000	0.217797
0.114000	0.224702
0.115000	0.229305
0.116000	0.243773
0.117000	0.256268
0.118000	0.275997
0.119000	0.278298
0.120000	0.271393
0.121000	0.272708
0.122000	0.261529
0.123000	0.261858
0.124000	0.243115
0.125000	0.238841
0.126000	0.231607
0.127000	0.231607
0.128000	0.235553
0.129000	0.234895
0.130000	0.228319
0.131000	0.240814
0.132000	0.243773
0.133000	0.247061
0.134000	0.263502
0.135000	0.273037
0.136000	0.266790
0.137000	0.283230
0.138000	0.310522
0.139000	0.319400
0.140000	0.327949
0.141000	0.330908
0.142000	0.337155
0.143000	0.318413
0.144000	0.329593
0.145000	0.312823
0.146000	0.292108
0.147000	0.278956
0.148000	0.279285
0.149000	0.276325
0.150000	0.278298
0.151000	0.275668
0.152000	0.298356
0.153000	0.293095
0.154000	0.302959
0.155000	0.309535
0.156000	0.317427
0.157000	0.315783
0.158000	0.313152
0.159000	0.320386
0.160000	0.337155
0.161000	0.342088
0.162000	0.335840
0.163000	0.336827
0.164000	0.322688
0.165000	0.321701
0.166000	0.318742
0.167000	0.294410
0.168000	0.276654
0.169000	0.290135
0.170000	0.297040
0.171000	0.288820
0.172000	0.295068
0.173000	0.296054
0.174000	0.319071
0.175000	0.323674
0.176000	0.360172
0.177000	0.369050
0.178000	0.372996
0.179000	0.372996
0.180000	0.370694
0.181000	0.373325
0.182000	0.368721
0.183000	0.360830
0.184000	0.343074
0.185000	0.333538
0.186000	0.326305
0.187000	0.311837
0.188000	0.305590
0.189000	0.285861
0.190000	0.280271
0.191000	0.276325
0.192000	0.281915
0.193000	0.279613
0.194000	0.282902
0.195000	0.298356
0.196000	0.313810
0.197000	0.322030
0.198000	0.326633
0.199000	0.326962
0.200000	0.326633
0.201000	0.319071
0.202000	0.320057
0.203000	0.306905
0.204000	0.314139
0.205000	0.322359
0.206000	0.315783
0.207000	0.323345
0.208000	0.318413
0.209000	0.311837
0.210000	0.310851
0.211000	0.300000
0.212000	0.300000
0.213000	0.288491
0.214000	0.293424
0.215000	0.326305
0.216000	0.321701
0.217000	0.324332
0.218000	0.302630
0.219000	0.302301
0.220000	0.299671
0.221000	0.302301
0.222000	0.300657
0.223000	0.282902
0.224000	0.267119
0.225000	0.271064
0.226000	0.283559
0.227000	0.277312
0.228000	0.286518
0.229000	0.280929
0.230000	0.284546
0.231000	0.300000
0.232000	0.297040
0.233000	0.297698
0.234000	0.297698
0.235000	0.295725
0.236000	0.296712
0.237000	0.307562
0.238000	0.306247
0.239000	0.305918
0.240000	0.304603
0.241000	0.294739
0.242000	0.286190
0.243000	0.281258
0.244000	0.277312
0.245000	0.264159
0.246000	0.251993
0.247000	0.253637
0.248000	0.252980
0.249000	0.244759
0.250000	0.251007
0.251000	0.232922
0.252000	0.249692
0.253000	0.257912
0.254000	0.269420
0.255000	0.276983
0.256000	0.283888
0.257000	0.283230
0.258000	0.285203
0.259000	0.281915
0.260000	0.288491
0.261000	0.282244
0.262000	0.277641
0.263000	0.271722
0.264000	0.260214
0.265000	0.251007
0.266000	0.246404
0.267000	0.240485
0.268000	0.229963
0.269000	0.237197
0.270000	0.232593
0.271000	0.237526
0.272000	0.234238
0.273000	0.236210
0.274000	0.227004
0.275000	0.246075
0.276000	0.250349
0.277000	0.249034
0.278000	0.260871
0.279000	0.263502
0.280000	0.274352
0.281000	0.272051
0.282000	0.265146
0.283000	0.252322
0.284000	0.241800
0.285000	0.240485
0.286000	0.235224
0.287000	0.216811
0.288000	0.204316
0.289000	0.204316
0.290000	0.211878
0.291000	0.232593
0.292000	0.241143
0.293000	0.240156
0.294000	0.241800
0.295000	0.238841
0.296000	0.238183
0.297000	0.246075
0.298000	0.257912
0.299000	0.253637
0.300000	0.263173
0.301000	0.257583
0.302000	0.251664
0.303000	0.258241
0.304000	0.250678
0.305000	0.252322
0.306000	0.258898
0.307000	0.235224
0.308000	0.233909
0.309000	0.224044
0.310000	0.223387
0.311000	0.212865
0.312000	0.202014
0.313000	0.199055
0.314000	0.193794
0.315000	0.188533
0.316000	0.193794
0.317000	0.204644
0.318000	0.211550
0.319000	0.221743
0.320000	0.231278
0.321000	0.217468
0.322000	0.219441
0.323000	0.201028
0.324000	0.203987
0.325000	0.152035
0.326000	0.133950
0.327000	0.110276
0.328000	0.110933
0.329000	0.129018
0.330000	0.125072
0.331000	0.146774
0.332000	0.149075
0.333000	0.154665
0.334000	0.158282
0.335000	0.157296
0.336000	0.160255
0.337000	0.167160
0.338000	0.152692
0.339000	0.149404
0.340000	0.150719
0.341000	0.144143
0.342000	0.136252
0.343000	0.136252
0.344000	0.128689
0.345000	0.121784
0.346000	0.125730
0.347000	0.134937
0.348000	0.129018
0.349000	0.139869
0.350000	0.155652
0.351000	0.161241
0.352000	0.189190
0.353000	0.195438
0.354000	0.216482
0.355000	0.229634
0.356000	0.258241
0.357000	0.273366
0.358000	0.285861
0.359000	0.304603
0.360000	0.297040
0.361000	0.280600
0.362000	0.276983
0.363000	0.283559
0.364000	0.280600
0.365000	0.281915
0.366000	0.275668
0.367000	0.265803
0.368000	0.270078
0.369000	0.265475
0.370000	0.264817
0.371000	0.283888
0.372000	0.280600
0.373000	0.277969
0.374000	0.285861
0.375000	0.300000
0.376000	0.299671
0.377000	0.298027
0.378000	0.310522
0.379000	0.303617
0.380000	0.315454
0.381000	0.314796
0.382000	0.313152
0.383000	0.310193
0.384000	0.312495
0.385000	0.309864
0.386000	0.296383
0.387000	0.296383
0.388000	0.289149
0.389000	0.279942
0.390000	0.284217
0.391000	0.285532
0.392000	0.295068
0.393000	0.290135
0.394000	0.303617
0.395000	0.311179
0.396000	0.321372
0.397000	0.335183
0.398000	0.349650
0.399000	0.351623
0.400000	0.357871
0.401000	0.368392
0.402000	0.372009
0.403000	0.359843
0.404000	0.351623
0.405000	0.348006
0.406000	0.332881
0.407000	0.321372
0.408000	0.312823
0.409000	0.294081
0.410000	0.300329
0.411000	0.296054
0.412000	0.301644
0.413000	0.313152
0.414000	0.320057
0.415000	0.321372
0.416000	0.322030
0.417000	0.325647
0.418000	0.334196
0.419000	0.332552
0.420000	0.323017
0.421000	0.322359
0.422000	0.323017
0.423000	0.331237
0.424000	0.327949
0.425000	0.328935
0.426000	0.316769
0.427000	0.312823
0.428000	0.298356
0.429000	0.299013
0.430000	0.276983
0.431000	0.269749
0.432000	0.277641
0.433000	0.274024
0.434000	0.274352
0.435000	0.293424
0.436000	0.320057
0.437000	0.334196
0.438000	0.339786
0.439000	0.350637
0.440000	0.356226
0.441000	0.350308
0.442000	0.326962
0.443000	0.299013
0.444000	0.281258
0.445000	0.255939
0.446000	0.236868
0.447000	0.227990
0.448000	0.219441
0.449000	0.221743
0.450000	0.214509
0.451000	0.225688
0.452000	0.236868
0.453000	0.237854
0.454000	0.231936
0.455000	0.227004
0.456000	0.239170
0.457000	0.257583
0.458000	0.254624
0.459000	0.256597
0.460000	0.258898
0.461000	0.253309
0.462000	0.248705
0.463000	0.245746
0.464000	0.232922
0.465000	0.201685
0.466000	0.181957
0.467000	0.190177
0.468000	0.199384
0.469000	0.200041
0.470000	0.203658
0.471000	0.199384
0.472000	0.215166
0.473000	0.224702
0.474000	0.238183
0.475000	0.244431
0.476000	0.237197
0.477000	0.228648
0.478000	0.223387
0.479000	0.221085
0.480000	0.227004
0.481000	0.214838
0.482000	0.199712
0.483000	0.168475
0.484000	0.165845
0.485000	0.159597
0.486000	0.154008
0.487000	0.162228
0.488000	0.175380
0.489000	0.189190
0.490000	0.216811
0.491000	0.216482
0.492000	0.222071
0.493000	0.218783
0.494000	0.226675
0.495000	0.216811
0.496000	0.227004
0.497000	0.222729
0.498000	0.209577
0.499000	0.212865
0.500000	0.208590
0.501000	0.206289
0.502000	0.212207
0.503000	0.184916
0.504000	0.163872
0.505000	0.151706
0.506000	0.158282
0.507000	0.146774
0.508000	0.128360
0.509000	0.118167
0.510000	0.124415
0.511000	0.141184
0.512000	0.153021
0.513000	0.157953
0.514000	0.169133
0.515000	0.166502
0.516000	0.178668
0.517000	0.180641
0.518000	0.184916
0.519000	0.206617
0.520000	0.203329
0.521000	0.194451
0.522000	0.176367
0.523000	0.183929
0.524000	0.163214
0.525000	0.153350
0.526000	0.145458
0.527000	0.135594
0.528000	0.134279
0.529000	0.151048
0.530000	0.144143
0.531000	0.151706
0.532000	0.161570
0.533000	0.151706
0.534000	0.160913
0.535000	0.176696
0.536000	0.170119
0.537000	0.155652
0.538000	0.164530
0.539000	0.164858
0.540000	0.162885
0.541000	0.162557
0.542000	0.132635
0.543000	0.120798
0.544000	0.099754
0.545000	0.093177
0.546000	0.081669
0.547000	0.073449
0.548000	0.080354
0.549000	0.088903
0.550000	0.074764
0.551000	0.076079
0.552000	0.079696
0.553000	0.091533
0.554000	0.086272
0.555000	0.092191
0.556000	0.110276
0.557000	0.111262
0.558000	0.102713
0.559000	0.108960
0.560000	0.113564
0.561000	0.112577
0.562000	0.088245
0.563000	0.080354
0.564000	0.065557
0.565000	0.058324
0.566000	0.046815
0.567000	0.035964
0.568000	0.021825
0.569000	0.010646
0.570000	0.003083
0.571000	0.005385
0.572000	0.004070
0.573000	-0.002507
0.574000	-0.022893
0.575000	-0.031113
0.576000	-0.027496
0.577000	-0.035388
0.578000	-0.027167
0.579000	-0.033744
0.580000	-0.039333
0.581000	-0.073201
0.582000	-0.083723
0.583000	-0.098848
0.584000	-0.111672
0.585000	-0.124496
0.586000	-0.136990
0.587000	-0.152116
0.588000	-0.144882
0.589000	-0.136990
0.590000	-0.112001
0.591000	-0.113645
0.592000	-0.119235
0.593000	-0.135018
0.594000	-0.143895
0.595000	-0.157048
0.596000	-0.151129
0.597000	-0.138963
0.598000	-0.145539
0.599000	-0.175132
0.600000	-0.179078
0.601000	-0.169543
0.602000	-0.144224
0.603000	-0.155733
0.604000	-0.137648
0.605000	-0.154089
0.606000	-0.155404
0.607000	-0.188285
0.608000	-0.191244
0.609000	-0.212617
0.610000	-0.225769
0.611000	-0.242868
0.612000	-0.280023
0.613000	-0.303369
0.614000	-0.300410
0.615000	-0.285284
0.616000	-0.277722
0.617000	-0.278708
0.618000	-0.277064
0.619000	-0.284955
0.620000	-0.281010
0.621000	-0.275420
0.622000	-0.281996
0.623000	-0.292189
0.624000	-0.287586
0.625000	-0.305013
0.626000	-0.307643
0.627000	-0.302054
0.628000	-0.299752
0.629000	-0.306657
0.630000	-0.304026
0.631000	-0.292847
0.632000	-0.273118
0.633000	-0.273118
0.634000	-0.273118
0.635000	-0.260295
0.636000	-0.252074
0.637000	-0.238922
0.638000	-0.236291
0.639000	-0.228729
0.640000	-0.223139
0.641000	-0.214590
0.642000	-0.212946
0.643000	-0.211302
0.644000	-0.211959
0.645000	-0.212617
0.646000	-0.208342
0.647000	-0.212946
0.648000	-0.214261
0.649000	-0.204397
0.650000	-0.203081
0.651000	-0.188285
0.652000	-0.181709
0.653000	-0.170529
0.654000	-0.165926
0.655000	-0.137977
0.656000	-0.124496
0.657000	-0.109041
0.658000	-0.092601
0.659000	-0.074187
0.660000	-0.059391
0.661000	-0.053801
0.662000	-0.043608
0.663000	-0.043608
0.664000	-0.033415
0.665000	-0.031771
0.666000	-0.029140
0.667000	-0.021578
0.668000	-0.015001
0.669000	0.000124
0.670000	0.009988
0.671000	0.014920
0.672000	0.031032
0.673000	0.045500
0.674000	0.068188
0.675000	0.089232
0.676000	0.098767
0.677000	0.117838
0.678000	0.130333
0.679000	0.156309
0.680000	0.166831
0.681000	0.163872
0.682000	0.185573
0.683000	0.200370
0.684000	0.209905
0.685000	0.196753
0.686000	0.204316
0.687000	0.220099
0.688000	0.218783
0.689000	0.218126
0.690000	0.221414
0.691000	0.230292
0.692000	0.239827
0.693000	0.248048
0.694000	0.266461
0.695000	0.290464
0.696000	0.289478
0.697000	0.297369
0.698000	0.304274
0.699000	0.317427
0.700000	0.330579
0.701000	0.349979
0.702000	0.355898
0.703000	0.357213
0.704000	0.349650
0.705000	0.365104
0.706000	0.368392
0.707000	0.372667
0.708000	0.378914
0.709000	0.399958
0.710000	0.407521
0.711000	0.410809
0.712000	0.426592
0.713000	0.434155
0.714000	0.435141
0.715000	0.455199
0.716000	0.473941
0.717000	0.483476
0.718000	0.486765
0.719000	0.495971
0.720000	0.503205
0.721000	0.511425
0.722000	0.525893
0.723000	0.528195
0.724000	0.531812
0.725000	0.535100
0.726000	0.552198
0.727000	0.550883
0.728000	0.555157
0.729000	0.566994
0.730000	0.566666
0.731000	0.580805
0.732000	0.595930
0.733000	0.603821
0.734000	0.615987
0.735000	0.618947
0.736000	0.632428
0.737000	0.643607
0.738000	0.654129
0.739000	0.658075
0.740000	0.668597
0.741000	0.665309
0.742000	0.671885
0.743000	0.659390
0.744000	0.668926
0.745000	0.666624
0.746000	0.672214
0.747000	0.667939
0.748000	0.659390
0.749000	0.656760
0.750000	0.652157
0.751000	0.653472
0.752000	0.661363
0.753000	0.667939
0.754000	0.688983
0.755000	0.725481
0.756000	0.744224
0.757000	0.745868
0.758000	0.738305
0.759000	0.738305
0.760000	0.733373
0.761000	0.736661
0.762000	0.733702
0.763000	0.742251
0.764000	0.733044
0.765000	0.735017
0.766000	0.744224
0.767000	0.751458
0.768000	0.748827
0.769000	0.739292
0.770000	0.722193
0.771000	0.718248
0.772000	0.722851
0.773000	0.725481
0.774000	0.752444
0.775000	0.766583
0.776000	0.773817
0.777000	0.776776
0.778000	0.782366
0.779000	0.791901
0.780000	0.776776
0.781000	0.766583
0.782000	0.745539
0.783000	0.717919
0.784000	0.701807
0.785000	0.709370
0.786000	0.705753
0.787000	0.713644
0.788000	0.714631
0.789000	0.691614
0.790000	0.690299
0.791000	0.689312
0.792000	0.687011
0.793000	0.682078
0.794000	0.676817
0.795000	0.683722
0.796000	0.662679
0.797000	0.653143
0.798000	0.646567
0.799000	0.648540
0.800000	0.643607
0.801000	0.638018
0.802000	0.631113
0.803000	0.631113
0.804000	0.608753
0.805000	0.589354
0.806000	0.575215
0.807000	0.563049
0.808000	0.565679
0.809000	0.550225
0.810000	0.537401
0.811000	0.531154
0.812000	0.526879
0.813000	0.534442
0.814000	0.529839
0.815000	0.534442
0.816000	0.544635
0.817000	0.540690
0.818000	0.535757
0.819000	0.535429
0.820000	0.519317
0.821000	0.519646
0.822000	0.514713
0.823000	0.495314
0.824000	0.488737
0.825000	0.472626
0.826000	0.470982
0.827000	0.447636
0.828000	0.432511
0.829000	0.403575
0.830000	0.392396
0.831000	0.366420
0.832000	0.369708
0.833000	0.364776
0.834000	0.363460
0.835000	0.367077
0.836000	0.360172
0.837000	0.374311
0.838000	0.363131
0.839000	0.370694
0.840000	0.356884
0.841000	0.354582
0.842000	0.343732
0.843000	0.331566
0.844000	0.313152
0.845000	0.299013
0.846000	0.283888
0.847000	0.264817
0.848000	0.254624
0.849000	0.255281
0.850000	0.256268
0.851000	0.248705
0.852000	0.242787
0.853000	0.229963
0.854000	0.229305
0.855000	0.222400
0.856000	0.227661
0.857000	0.214509
0.858000	0.193465
0.859000	0.190506
0.860000	0.178668
0.861000	0.169133
0.862000	0.159269
0.863000	0.161899
0.864000	0.157624
0.865000	0.141184
0.866000	0.125730
0.867000	0.114221
0.868000	0.116523
0.869000	0.110276
0.870000	0.116523
0.871000	0.104686
0.872000	0.125730
0.873000	0.130662
0.874000	0.149733
0.875000	0.131320
0.876000	0.139540
0.877000	0.132635
0.878000	0.126716
0.879000	0.134608
0.880000	0.152035
0.881000	0.160913
0.882000	0.138225
0.883000	0.129347
0.884000	0.119482
0.885000	0.120140
0.886000	0.124743
0.887000	0.116194
0.888000	0.108303
0.889000	0.078381
0.890000	0.064242
0.891000	0.050761
0.892000	0.042541
0.893000	0.041554
0.894000	0.030375
0.895000	0.032676
0.896000	0.048788
0.897000	0.050432
0.898000	0.057995
0.899000	0.078052
0.900000	0.090218
0.901000	0.087588
0.902000	0.092520
0.903000	0.077066
0.904000	0.074764
0.905000	0.052405
0.906000	0.049446
0.907000	0.034649
0.908000	0.005056
0.909000	0.003083
0.910000	0.003412
0.911000	-0.011384
0.912000	-0.014673
0.913000	-0.004151
0.914000	-0.021906
0.915000	-0.016317
0.916000	-0.017961
0.917000	-0.010069
0.918000	-0.003493
0.919000	0.001439
0.920000	0.009659
0.921000	0.017880
0.922000	-0.000534
0.923000	-0.009740
0.924000	-0.002178
0.925000	-0.005466
0.926000	-0.001849
0.927000	-0.004151
0.928000	-0.010727
0.929000	-0.007768
0.930000	-0.013357
0.931000	-0.002507
0.932000	0.003083
0.933000	0.003741
0.934000	0.015578
0.935000	0.022483
0.936000	0.029059
0.937000	0.047473
0.938000	0.051090
0.939000	0.056351
0.940000	0.051090
0.941000	0.040239
0.942000	0.037608
0.943000	0.029059
0.944000	0.017222
0.945000	0.016236
0.946000	0.014263
0.947000	0.009331
0.948000	0.014592
0.949000	0.011632
0.950000	0.018209
0.951000	0.028073
0.952000	0.026758
0.953000	0.037937
0.954000	0.046157
0.955000	0.058981
0.956000	0.059639
0.957000	0.068517
0.958000	0.066544
0.959000	0.076408
0.960000	0.082984
0.961000	0.092191
0.962000	0.092849
0.963000	0.082656
0.964000	0.077066
0.965000	0.073449
0.966000	0.081669
0.967000	0.070490
0.968000	0.076079
0.969000	0.068845
0.970000	0.074764
0.971000	0.091862
0.972000	0.104357
0.973000	0.105015
0.974000	0.101398
0.975000	0.099754
0.976000	0.081011
0.977000	0.073778
0.978000	0.066544
0.979000	0.065886
0.980000	0.078052
0.981000	0.082984
0.982000	0.088574
0.983000	0.095150
0.984000	0.081669
0.985000	0.063913
0.986000	0.075422
0.987000	0.064571
0.988000	0.074764
0.989000	0.059310
0.990000	0.043527
0.991000	0.034649
0.992000	0.045829
0.993000	0.057008
0.994000	0.068188
0.995000	0.077066
0.996000	0.091862
0.997000	0.096466
0.998000	0.091862
0.999000	0.103042
1.000000	0.093177
1.001000	0.093177
1.002000	0.091533
1.003000	0.098767
1.004000	0.107974
1.005000	0.101727
1.006000	0.095808
1.007000	0.089232
1.008000	0.089561
1.009000	0.089232
1.010000	0.071805
1.011000	0.065229
1.012000	0.060954
1.013000	0.055035
1.014000	0.070161
1.015000	0.051090
1.016000	0.049774
1.017000	0.061612
1.018000	0.065886
1.019000	0.073778
1.020000	0.068845
1.021000	0.071147
1.022000	0.054049
1.023000	0.055364
1.024000	0.046157
1.025000	0.033005
1.026000	0.043856
1.027000	0.033663
1.028000	0.039910
1.029000	0.030046
1.030000	0.029717
1.031000	0.035964
1.032000	0.038595
1.033000	0.045829
1.034000	0.043198
1.035000	0.065557
1.036000	0.069174
1.037000	0.067859
1.038000	0.074106
1.039000	0.071476
1.040000	0.076737
1.041000	0.078052
1.042000	0.062927
1.043000	0.051418
1.044000	0.044185
1.045000	0.044513
1.046000	0.049774
1.047000	0.040897
1.048000	0.048788
1.049000	0.053391
1.050000	0.044842
1.051000	0.047802
1.052000	0.060954
1.053000	0.074435
1.054000	0.073449
1.055000	0.077723
1.056000	0.090547
1.057000	0.088245
1.058000	0.105015
1.059000	0.110933
1.060000	0.102713
1.061000	0.096466
1.062000	0.096466
1.063000	0.099754
1.064000	0.081998
1.065000	0.097781
1.066000	0.090547
1.067000	0.099425
1.068000	0.105672
1.069000	0.099096
1.070000	0.104686
1.071000	0.110276
1.072000	0.116523
1.073000	0.124415
1.074000	0.128360
1.075000	0.123428
1.076000	0.115865
1.077000	0.128689
1.078000	0.123099
1.079000	0.123099
1.080000	0.124415
1.081000	0.108303
1.082000	0.100083
1.083000	0.097452
1.084000	0.123428
1.085000	0.136252
1.086000	0.135265
1.087000	0.121126
1.088000	0.123757
1.089000	0.141184
1.090000	0.149733
1.091000	0.150391
1.092000	0.133292
1.093000	0.104357
1.094000	0.070161
1.095000	0.053063
1.096000	0.063256
1.097000	0.075093
1.098000	0.066215
1.099000	0.064242
1.100000	0.063584
1.101000	0.072462
1.102000	0.085944
1.103000	0.099096
1.104000	0.089232
1.105000	0.082656
1.106000	0.078710
1.107000	0.090876
1.108000	0.101398
1.109000	0.111591
1.110000	0.100411
1.111000	0.098438
1.112000	0.096466
1.113000	0.099754
1.114000	0.107316
1.115000	0.118496
1.116000	0.110604
1.117000	0.108303
1.118000	0.113893
1.119000	0.121455
1.120000	0.108632
1.121000	0.116194
1.122000	0.116852
1.123000	0.114879
1.124000	0.107645
1.125000	0.104357
1.126000	0.099425
1.127000	0.099754
1.128000	0.099425
1.129000	0.114879
1.130000	0.125730
1.131000	0.130004
1.132000	0.135594
1.133000	0.147103
1.134000	0.153350
1.135000	0.142828
1.136000	0.164530
1.137000	0.171435
1.138000	0.164530
1.139000	0.154994
1.140000	0.146445
1.141000	0.149404
1.142000	0.150391
1.143000	0.164530
1.144000	0.155323
1.145000	0.132635
1.146000	0.127374
1.147000	0.117510
1.148000	0.097123
1.149000	0.100740
1.150000	0.118825
1.151000	0.126059
1.152000	0.135594
1.153000	0.129347
1.154000	0.129347
1.155000	0.125072
1.156000	0.114550
1.157000	0.125401
1.158000	0.123757
1.159000	0.114879
1.160000	0.100411
1.161000	0.080683
1.162000	0.078052
1.163000	0.064571
1.164000	0.048788
1.165000	0.026100
1.166000	0.015249
1.167000	-0.000534
1.168000	-0.007439
1.169000	-0.008754
1.170000	-0.016974
1.171000	-0.029469
1.172000	-0.036045
1.173000	-0.039991
1.174000	-0.038676
1.175000	-0.053144
1.176000	-0.048211
1.177000	-0.052157
1.178000	-0.049855
1.179000	-0.037032
1.180000	-0.024866
1.181000	-0.022893
1.182000	-0.013686
1.183000	-0.001191
1.184000	0.014592
1.185000	0.029388
1.186000	0.028730
1.187000	0.023141
1.188000	0.038266
1.189000	0.042541
1.190000	0.025442
1.191000	0.047473
1.192000	0.081998
1.193000	0.092849
1.194000	0.096466
1.195000	0.120140
1.196000	0.111591
1.197000	0.100083
1.198000	0.087259
1.199000	0.074106
1.200000	0.063256
1.201000	0.062598
1.202000	0.033663
1.203000	0.004070
1.204000	0.009002
1.205000	-0.005137
1.206000	-0.012042
1.207000	-0.005795
1.208000	-0.008096
1.209000	-0.023222
1.210000	-0.021906
1.211000	-0.023550
1.212000	-0.028154
1.213000	-0.009412
1.214000	0.001768
1.215000	0.010646
1.216000	0.027744
1.217000	0.042541
1.218000	0.042541
1.219000	0.049774
1.220000	0.053391
1.221000	0.051418
1.222000	0.046486
1.223000	0.036951
1.224000	0.023470
1.225000	0.007687
1.226000	-0.015659
1.227000	-0.014344
1.228000	-0.016974
1.229000	-0.011056
1.230000	-0.000205
1.231000	0.010975
1.232000	0.023141
1.233000	0.012619
1.234000	0.013605
1.235000	0.022812
1.236000	0.038924
1.237000	0.044842
1.238000	0.049446
1.239000	0.059968
1.240000	0.067530
1.241000	0.084300
1.242000	0.091205
1.243000	0.092520
1.244000	0.090547
1.245000	0.074764
1.246000	0.070161
1.247000	0.060954
1.248000	0.062598
1.249000	0.047802
1.250000	0.042869
1.251000	0.055364
1.252000	0.075422
1.253000	0.078710
1.254000	0.086272
1.255000	0.102055
1.256000	0.086930
1.257000	0.092191
1.258000	0.107974
1.259000	0.101727
1.260000	0.112906
1.261000	0.117510
1.262000	0.125730
1.263000	0.122442
1.264000	0.127374
1.265000	0.120469
1.266000	0.117181
1.267000	0.120798
1.268000	0.114221
1.269000	0.122113
1.270000	0.119154
1.271000	0.111591
1.272000	0.100083
1.273000	0.085615
1.274000	0.106330
1.275000	0.105672
1.276000	0.112577
1.277000	0.128031
1.278000	0.111262
1.279000	0.101069
1.280000	0.105015
1.281000	0.104686
1.282000	0.117181
1.283000	0.128360
1.284000	0.130991
1.285000	0.135594
1.286000	0.140197
1.287000	0.132635
1.288000	0.133950
1.289000	0.137567
1.290000	0.140526
1.291000	0.133621
1.292000	0.117181
1.293000	0.115208
1.294000	0.118167
1.295000	0.115537
1.296000	0.129676
1.297000	0.135923
1.298000	0.141184
1.299000	0.140526
1.300000	0.139211
1.301000	0.145458
1.302000	0.151377
1.303000	0.154994
1.304000	0.138882
1.305000	0.110604
1.306000	0.100411
1.307000	0.105672
1.308000	0.109289
1.309000	0.115865
1.310000	0.124415
1.311000	0.123428
1.312000	0.133292
1.313000	0.150719
1.314000	0.144472
1.315000	0.132306
1.316000	0.115537
1.317000	0.124743
1.318000	0.131648
1.319000	0.111262
1.320000	0.123757
1.321000	0.122113
1.322000	0.107316
1.323000	0.114221
1.324000	0.098767
1.325000	0.076737
1.326000	0.071476
1.327000	0.072134
1.328000	0.079696
1.329000	0.099754
1.330000	0.105672
1.331000	0.126716
1.332000	0.113235
1.333000	0.131320
1.334000	0.139211
1.335000	0.141184
1.336000	0.156967
1.337000	0.174065
1.338000	0.180312
1.339000	0.165187
1.340000	0.168804
1.341000	0.181628
1.342000	0.179326
1.343000	0.163214
1.344000	0.141513
1.345000	0.129676
1.346000	0.078381
1.347000	0.060625
1.348000	0.050761
1.349000	0.046486
1.350000	0.035307
1.351000	0.041883
1.352000	0.056351
1.353000	0.067530
1.354000	0.082327
1.355000	0.092191
1.356000	0.097123
1.357000	0.099754
1.358000	0.108632
1.359000	0.112906
1.360000	0.100083
1.361000	0.095808
1.362000	0.081340
1.363000	0.080354
1.364000	0.071805
1.365000	0.064242
1.366000	0.059968
1.367000	0.049117
1.368000	0.051090
1.369000	0.042212
1.370000	0.041225
1.371000	0.044185
1.372000	0.055364
1.373000	0.073449
1.374000	0.087259
1.375000	0.109289
1.376000	0.125730
1.377000	0.119811
1.378000	0.128031
1.379000	0.138225
1.380000	0.120469
1.381000	0.098438
1.382000	0.066215
1.383000	0.069832
1.384000	0.070161
1.385000	0.045500
1.386000	0.046157
1.387000	0.058981
1.388000	0.052076
1.389000	0.050432
1.390000	0.049774
1.391000	0.056022
1.392000	0.065557
1.393000	0.058652
1.394000	0.059310
1.395000	0.069174
1.396000	0.075422
1.397000	0.082656
1.398000	0.083313
1.399000	0.073778
1.400000	0.084957
1.401000	0.080354
1.402000	0.099096
1.403000	0.108632
1.404000	0.114550
1.405000	0.118167
1.406000	0.106659
1.407000	0.086601
1.408000	0.085615
1.409000	0.081998
1.410000	0.086272
1.411000	0.081998
1.412000	0.082984
1.413000	0.077395
1.414000	0.079039
1.415000	0.091862
1.416000	0.096137
1.417000	0.090876
1.418000	0.089232
1.419000	0.094164
1.420000	0.098110
1.421000	0.104357
1.422000	0.111920
1.423000	0.112249
1.424000	0.091533
1.425000	0.093835
1.426000	0.098767
1.427000	0.083971
1.428000	0.089561
1.429000	0.093835
1.430000	0.081340
1.431000	0.087588
1.432000	0.077066
1.433000	0.086601
1.434000	0.098767
1.435000	0.112249
1.436000	0.117510
1.437000	0.125401
1.438000	0.129018
1.439000	0.139211
1.440000	0.141842
1.441000	0.140197
1.442000	0.120140
1.443000	0.115865
1.444000	0.106659
1.445000	0.105344
1.446000	0.103371
1.447000	0.090218
1.448000	0.077723
1.449000	0.080354
1.450000	0.082984
1.451000	0.091533
1.452000	0.097452
1.453000	0.099754
1.454000	0.096137
1.455000	0.090876
1.456000	0.091205
1.457000	0.104357
1.458000	0.111920
1.459000	0.111591
1.460000	0.122442
1.461000	0.124743
1.462000	0.117181
1.463000	0.110604
1.464000	0.106659
1.465000	0.101727
1.466000	0.092849
1.467000	0.083642
1.468000	0.103699
1.469000	0.102055
1.470000	0.100740
1.471000	0.104028
1.472000	0.096794
1.473000	0.089232
1.474000	0.091862
1.475000	0.115537
1.476000	0.116523
1.477000	0.122442
1.478000	0.117838
1.479000	0.107974
1.480000	0.125730
1.481000	0.128689
1.482000	0.130333
1.483000	0.121455
1.484000	0.114879
1.485000	0.113564
1.486000	0.110933
1.487000	0.106988
1.488000	0.094164
1.489000	0.087917
1.490000	0.095479
1.491000	0.111920
1.492000	0.107316
1.493000	0.110276
1.494000	0.112906
1.495000	0.121126
1.496000	0.114221
1.497000	0.112906
1.498000	0.104357
1.499000	0.102055
1.500000	0.087588
1.501000	0.083971
1.502000	0.084628
1.503000	0.093177
1.504000	0.089561
1.505000	0.094822
1.506000	0.081340
1.507000	0.079039
1.508000	0.064571
1.509000	0.060625
1.510000	0.068517
1.511000	0.069832
1.512000	0.075422
1.513000	0.085944
1.514000	0.090218
1.515000	0.087259
1.516000	0.087259
1.517000	0.095808
1.518000	0.078052
1.519000	0.073449
1.520000	0.072462
1.521000	0.066215
1.522000	0.070490
1.523000	0.057008
1.524000	0.050103
1.525000	0.042212
1.526000	0.049117
1.527000	0.047802
1.528000	0.044185
1.529000	0.047473
1.530000	0.047144
1.531000	0.066873
1.532000	0.091862
1.533000	0.105672
1.534000	0.108632
1.535000	0.094493
1.536000	0.082327
1.537000	0.081011
1.538000	0.080683
1.539000	0.070490
1.540000	0.056351
1.541000	0.053063
1.542000	0.053720
1.543000	0.069174
1.544000	0.072134
1.545000	0.056022
1.546000	0.057008
1.547000	0.043527
1.548000	0.049117
1.549000	0.046486
1.550000	0.047802
1.551000	0.054049
1.552000	0.070161
1.553000	0.075750
1.554000	0.088245
1.555000	0.102713
1.556000	0.097781
1.557000	0.102713
1.558000	0.099096
1.559000	0.091533
1.560000	0.076079
1.561000	0.065886
1.562000	0.063256
1.563000	0.065886
1.564000	0.061283
1.565000	0.059310
1.566000	0.057666
1.567000	0.053720
1.568000	0.054049
1.569000	0.063256
1.570000	0.093177
1.571000	0.105344
1.572000	0.097452
1.573000	0.086272
1.574000	0.078381
1.575000	0.093506
1.576000	0.096794
1.577000	0.098767
1.578000	0.104686
1.579000	0.098438
1.580000	0.102384
1.581000	0.112577
1.582000	0.112249
1.583000	0.109618
1.584000	0.112906
1.585000	0.109289
1.586000	0.108960
1.587000	0.109947
1.588000	0.116852
1.589000	0.114879
1.590000	0.120140
1.591000	0.124743
1.592000	0.121455
1.593000	0.134279
1.594000	0.144472
1.595000	0.149404
1.596000	0.154336
1.597000	0.162885
1.598000	0.156638
1.599000	0.170777
1.600000	0.176367
1.601000	0.177682
1.602000	0.182614
1.603000	0.172750
1.604000	0.162228
1.605000	0.148418
1.606000	0.153679
1.607000	0.153021
1.608000	0.137238
1.609000	0.139211
1.610000	0.151706
1.611000	0.159269
1.612000	0.167160
1.613000	0.175380
1.614000	0.197082
1.615000	0.195109
1.616000	0.182943
1.617000	0.185902
1.618000	0.187546
1.619000	0.181957
1.620000	0.181628
1.621000	0.169462
1.622000	0.163543
1.623000	0.141513
1.624000	0.120798
1.625000	0.121784
1.626000	0.137238
1.627000	0.139869
1.628000	0.148418
1.629000	0.144801
1.630000	0.159597
1.631000	0.167489
1.632000	0.193136
1.633000	0.194780
1.634000	0.205631
1.635000	0.217139
1.636000	0.238841
1.637000	0.242787
1.638000	0.240156
1.639000	0.228977
1.640000	0.230949
1.641000	0.229305
1.642000	0.226675
1.643000	0.212865
1.644000	0.206289
1.645000	0.194780
1.646000	0.193465
1.647000	0.184587
1.648000	0.190834
1.649000	0.185573
1.650000	0.183272
1.651000	0.190177
1.652000	0.205302
1.653000	0.208590
1.654000	0.216153
1.655000	0.215824
1.656000	0.216811
1.657000	0.222071
1.658000	0.221085
1.659000	0.233251
1.660000	0.230292
1.661000	0.230292
1.662000	0.230292
1.663000	0.232593
1.664000	0.221743
1.665000	0.218126
1.666000	0.208919
1.667000	0.199055
1.668000	0.179655
1.669000	0.194451
1.670000	0.192807
1.671000	0.202343
1.672000	0.202343
1.673000	0.208919
1.674000	0.213194
1.675000	0.216153
1.676000	0.225688
1.677000	0.239827
1.678000	0.232593
1.679000	0.242129
1.680000	0.237854
1.681000	0.232265
1.682000	0.230292
1.683000	0.230292
1.684000	0.225031
1.685000	0.220756
1.686000	0.220099
1.687000	0.206617
1.688000	0.211878
1.689000	0.207275
1.690000	0.198726
1.691000	0.208590
1.692000	0.213851
1.693000	0.216482
1.694000	0.222729
1.695000	0.233909
1.696000	0.231936
1.697000	0.242787
1.698000	0.239170
1.699000	0.249034
1.700000	0.241471
1.701000	0.254953
1.702000	0.247390
1.703000	0.230621
1.704000	0.223387
1.705000	0.206617
1.706000	0.206617
1.707000	0.200041
1.708000	0.201685
1.709000	0.201685
1.710000	0.193136
1.711000	0.198397
1.712000	0.196095
1.713000	0.207933
1.714000	0.207604
1.715000	0.209905
1.716000	0.205960
1.717000	0.203000
1.718000	0.204973
1.719000	0.207933
1.720000	0.201028
1.721000	0.204973
1.722000	0.203000
1.723000	0.181957
1.724000	0.177353
1.725000	0.178997
1.726000	0.178997
1.727000	0.172092
1.728000	0.164201
1.729000	0.168146
1.730000	0.167489
1.731000	0.170119
1.732000	0.167160
1.733000	0.166831
1.734000	0.163543
1.735000	0.164530
1.736000	0.178011
1.737000	0.183601
1.738000	0.181957
1.739000	0.179984
1.740000	0.176367
1.741000	0.176038
1.742000	0.172092
1.743000	0.173079
1.744000	0.149075
1.745000	0.147103
1.746000	0.137896
1.747000	0.130004
1.748000	0.140526
1.749000	0.130333
1.750000	0.111262
1.751000	0.115865
1.752000	0.129676
1.753000	0.148747
1.754000	0.150391
1.755000	0.159269
1.756000	0.163872
1.757000	0.166831
1.758000	0.178668
1.759000	0.186231
1.760000	0.195109
1.761000	0.182614
1.762000	0.182943
1.763000	0.183929
1.764000	0.187546
1.765000	0.175380
1.766000	0.152364
1.767000	0.133950
1.768000	0.130004
1.769000	0.127374
1.770000	0.121784
1.771000	0.129018
1.772000	0.125730
1.773000	0.137238
1.774000	0.153679
1.775000	0.160913
1.776000	0.165187
1.777000	0.175709
1.778000	0.176696
1.779000	0.185245
1.780000	0.176367
1.781000	0.169791
1.782000	0.159597
1.783000	0.146116
1.784000	0.148418
1.785000	0.141513
1.786000	0.134937
1.787000	0.125401
1.788000	0.115865
1.789000	0.116523
1.790000	0.121784
1.791000	0.126716
1.792000	0.136581
1.793000	0.144143
1.794000	0.147760
1.795000	0.155980
1.796000	0.162228
1.797000	0.167160
1.798000	0.170119
1.799000	0.172421
1.800000	0.165516
1.801000	0.169462
1.802000	0.170448
1.803000	0.172421
1.804000	0.158282
1.805000	0.148089
1.806000	0.152035
1.807000	0.142499
1.808000	0.139869
1.809000	0.135594
1.810000	0.140197
1.811000	0.127374
1.812000	0.133621
1.813000	0.132306
1.814000	0.139869
1.815000	0.142170
1.816000	0.145458
1.817000	0.153021
1.818000	0.154336
1.819000	0.153021
1.820000	0.151377
1.821000	0.149075
1.822000	0.140855
1.823000	0.143486
1.824000	0.143157
1.825000	0.139540
1.826000	0.133621
1.827000	0.125730
1.828000	0.128031
1.829000	0.125072
1.830000	0.133950
1.831000	0.131977
1.832000	0.137567
1.833000	0.139869
1.834000	0.140526
1.835000	0.140855
1.836000	0.126059
1.837000	0.122442
1.838000	0.119482
1.839000	0.136581
1.840000	0.148089
1.841000	0.158611
1.842000	0.159269
1.843000	0.162228
1.844000	0.174065
1.845000	0.173407
1.846000	0.178997
1.847000	0.168804
1.848000	0.160913
1.849000	0.156309
1.850000	0.156638
1.851000	0.155652
1.852000	0.165187
1.853000	0.164858
1.854000	0.158282
1.855000	0.165516
1.856000	0.159926
1.857000	0.154994
1.858000	0.155323
1.859000	0.147760
1.860000	0.144143
1.861000	0.134608
1.862000	0.126387
1.863000	0.108303
1.864000	0.090218
1.865000	0.077066
1.866000	0.070818
1.867000	0.072462
1.868000	0.083642
1.869000	0.067530
1.870000	0.056351
1.871000	0.053391
1.872000	0.055035
1.873000	0.061940
1.874000	0.060296
1.875000	0.054049
1.876000	0.049446
1.877000	0.048459
1.878000	0.046486
1.879000	0.043198
1.880000	0.041225
1.881000	0.039910
1.882000	0.029717
1.883000	0.022483
1.884000	0.020181
1.885000	0.005056
1.886000	-0.007768
1.887000	-0.009740
1.888000	-0.015001
1.889000	-0.018290
1.890000	-0.019934
1.891000	-0.021249
1.892000	-0.015001
1.893000	-0.013686
1.894000	-0.007439
1.895000	-0.002178
1.896000	-0.006781
1.897000	0.005056
1.898000	0.005385
1.899000	0.017222
1.900000	0.007687
1.901000	0.007687
1.902000	0.005056
1.903000	0.005056
1.904000	0.009002
1.905000	0.004070
1.906000	-0.000205
1.907000	-0.000205
1.908000	-0.003493
1.909000	-0.009412
1.910000	-0.009740
1.911000	0.001110
1.912000	-0.005466
1.913000	-0.016317
1.914000	-0.023879
1.915000	-0.015330
1.916000	-0.007110
1.917000	0.003412
1.918000	0.008344
1.919000	0.017880
1.920000	0.018209
1.921000	0.030046
1.922000	0.046486
1.923000	0.039581
1.924000	0.031361
1.925000	0.026100
1.926000	0.017551
1.927000	0.010975
1.928000	0.007029
1.929000	-0.007768
1.930000	-0.011056
1.931000	-0.007439
1.932000	-0.004151
1.933000	0.003741
1.934000	0.009331
1.935000	0.013934
1.936000	0.022812
1.937000	0.030375
1.938000	0.041225
1.939000	0.052734
1.940000	0.063584
1.941000	0.073449
1.942000	0.072791
1.943000	0.085286
1.944000	0.081998
1.945000	0.084628
1.946000	0.085286
1.947000	0.070490
1.948000	0.069503
1.949000	0.064242
1.950000	0.073120
1.951000	0.070818
1.952000	0.070161
1.953000	0.065886
1.954000	0.085944
1.955000	0.113893
1.956000	0.130333
1.957000	0.142499
1.958000	0.135923
1.959000	0.135265
1.960000	0.107974
1.961000	0.100083
1.962000	0.080683
1.963000	0.048459
1.964000	0.038266
1.965000	0.025114
1.966000	0.020510
1.967000	-0.001849
1.968000	-0.017303
1.969000	-0.041306
1.970000	-0.050513
1.971000	-0.044923
1.972000	-0.030456
1.973000	-0.023550
1.974000	-0.006781
1.975000	0.025771
1.976000	0.055693
1.977000	0.083971
1.978000	0.098110
1.979000	0.122442
1.980000	0.148747
1.981000	0.165845
1.982000	0.179655
1.983000	0.187546
1.984000	0.187217
1.985000	0.180641
1.986000	0.186560
1.987000	0.193794
1.988000	0.206617
1.989000	0.195438
1.990000	0.189519
1.991000	0.194780
1.992000	0.187875
1.993000	0.190177
1.994000	0.197739
1.995000	0.215166
1.996000	0.212536
1.997000	0.222729
1.998000	0.238512
1.999000	0.246732
2.000000	0.242787
2.001000	0.236210
2.002000	0.225360
2.003000	0.228319
2.004000	0.224044
2.005000	0.218126
2.006000	0.215824
2.007000	0.194123
2.008000	0.179655
2.009000	0.183929
2.010000	0.193465
2.011000	0.198726
2.012000	0.201028
2.013000	0.206946
2.014000	0.216153
2.015000	0.230292
2.016000	0.247061
2.017000	0.258570
2.018000	0.259556
2.019000	0.269749
2.020000	0.270078
2.021000	0.281915
2.022000	0.287505
2.023000	0.292437
2.024000	0.292437
2.025000	0.293752
2.026000	0.294081
2.027000	0.284546
2.028000	0.278298
2.029000	0.280271
2.030000	0.277969
2.031000	0.285203
2.032000	0.299342
2.033000	0.306247
2.034000	0.313810
2.035000	0.319071
2.036000	0.317756
2.037000	0.337155
2.038000	0.362145
2.039000	0.378914
2.040000	0.392067
2.041000	0.393711
2.042000	0.408836
2.043000	0.413440
2.044000	0.420673
2.045000	0.419358
2.046000	0.406535
2.047000	0.388121
2.048000	0.398314
2.049000	0.390752
2.050000	0.396013
2.051000	0.396341
2.052000	0.389765
2.053000	0.388450
2.054000	0.410480
2.055000	0.429880
2.056000	0.439416
2.057000	0.443033
2.058000	0.443033
2.059000	0.450595
2.060000	0.431195
2.061000	0.428236
2.062000	0.435141
2.063000	0.435799
2.064000	0.433168
2.065000	0.434484
2.066000	0.443690
2.067000	0.444348
2.068000	0.445334
2.069000	0.448622
2.070000	0.449938
2.071000	0.450266
2.072000	0.452568
2.073000	0.447965
2.074000	0.456185
2.075000	0.469666
2.076000	0.491697
2.077000	0.507151
2.078000	0.517673
2.079000	0.516686
2.080000	0.527537
2.081000	0.539703
2.082000	0.547923
2.083000	0.544964
2.084000	0.542005
2.085000	0.536744
2.086000	0.526222
2.087000	0.508137
2.088000	0.504520
2.089000	0.501232
2.090000	0.510439
2.091000	0.520632
2.092000	0.544964
2.093000	0.557788
2.094000	0.570940
2.095000	0.586723
2.096000	0.607109
2.097000	0.623879
2.098000	0.636374
2.099000	0.637031
2.100000	0.632428
2.101000	0.619604
2.102000	0.616974
2.103000	0.623879
2.104000	0.622892
2.105000	0.613028
2.106000	0.615001
2.107000	0.601848
2.108000	0.594943
2.109000	0.596916
2.110000	0.590669
2.111000	0.599218
2.112000	0.608096
2.113000	0.626838
2.114000	0.641635
2.115000	0.639991
2.116000	0.642950
2.117000	0.662350
2.118000	0.669255
2.119000	0.671228
2.120000	0.672214
2.121000	0.673200
2.122000	0.668268
2.123000	0.666953
2.124000	0.662350
2.125000	0.657418
2.126000	0.662350
2.127000	0.658733
2.128000	0.652485
2.129000	0.652485
2.130000	0.648211
2.131000	0.662679
2.132000	0.665309
2.133000	0.663336
2.134000	0.666624
2.135000	0.665309
2.136000	0.674516
2.137000	0.685038
2.138000	0.679119
2.139000	0.674187
2.140000	0.663336
2.141000	0.651499
2.142000	0.645252
2.143000	0.635716
2.144000	0.636702
2.145000	0.626838
2.146000	0.626180
2.147000	0.630784
2.148000	0.635058
2.149000	0.639004
2.150000	0.651499
2.151000	0.659390
2.152000	0.666295
2.153000	0.673200
2.154000	0.676817
2.155000	0.678133
2.156000	0.674187
2.157000	0.665967
2.158000	0.662021
2.159000	0.655773
2.160000	0.629469
2.161000	0.608096
2.162000	0.597574
2.163000	0.585408
2.164000	0.584093
2.165000	0.580147
2.166000	0.581462
2.167000	0.589354
2.168000	0.601191
2.169000	0.614343
2.170000	0.625852
2.171000	0.642621
2.172000	0.648868
2.173000	0.645909
2.174000	0.645909
2.175000	0.647224
2.176000	0.655116
2.177000	0.662679
2.178000	0.657418
2.179000	0.652485
2.180000	0.638346
2.181000	0.639991
2.182000	0.648540
2.183000	0.638346
2.184000	0.620919
2.185000	0.611055
2.186000	0.594286
2.187000	0.570940
2.188000	0.548910
2.189000	0.544635
2.190000	0.526551
2.191000	0.509781
2.192000	0.510439
2.193000	0.510110
2.194000	0.514385
2.195000	0.517015
2.196000	0.532798
2.197000	0.532140
2.198000	0.522276
2.199000	0.487093
2.200000	0.469666
2.201000	0.448951
2.202000	0.438429
2.203000	0.428236
2.204000	0.419029
2.205000	0.405219
2.206000	0.397985
2.207000	0.384833
2.208000	0.388121
2.209000	0.398314
2.210000	0.388779
2.211000	0.384833
2.212000	0.375626
2.213000	0.377270
2.214000	0.380558
2.215000	0.380230
2.216000	0.363789
2.217000	0.362474
2.218000	0.353267
2.219000	0.348006
2.220000	0.339128
2.221000	0.325318
2.222000	0.310851
2.223000	0.291779
2.224000	0.281586
2.225000	0.261858
2.226000	0.259556
2.227000	0.250020
2.228000	0.243773
2.229000	0.232922
2.230000	0.227004
2.231000	0.228977
2.232000	0.224044
2.233000	0.222071
2.234000	0.220756
2.235000	0.218455
2.236000	0.227990
2.237000	0.227661
2.238000	0.224702
2.239000	0.225031
2.240000	0.215495
2.241000	0.203658
2.242000	0.197411
2.243000	0.188533
2.244000	0.175709
2.245000	0.148089
2.246000	0.127045
2.247000	0.111920
2.248000	0.109947
2.249000	0.094493
2.250000	0.103042
2.251000	0.103699
2.252000	0.102055
2.253000	0.105344
2.254000	0.109618
2.255000	0.129018
2.256000	0.120469
2.257000	0.126387
2.258000	0.109289
2.259000	0.106659
2.260000	0.102055
2.261000	0.102713
2.262000	0.103371
2.263000	0.101069
2.264000	0.092191
2.265000	0.082327
2.266000	0.078710
2.267000	0.062269
2.268000	0.068517
2.269000	0.079696
2.270000	0.075750
2.271000	0.075422
2.272000	0.081998
2.273000	0.086272
2.274000	0.092520
2.275000	0.105344
2.276000	0.105672
2.277000	0.106659
2.278000	0.113235
2.279000	0.121126
2.280000	0.141513
2.281000	0.149075
2.282000	0.136252
2.283000	0.129347
2.284000	0.120798
2.285000	0.113564
2.286000	0.122442
2.287000	0.112249
2.288000	0.104686
2.289000	0.097781
2.290000	0.104686
2.291000	0.100740
2.292000	0.100411
2.293000	0.089889
2.294000	0.089561
2.295000	0.098438
2.296000	0.104357
2.297000	0.109289
2.298000	0.100740
2.299000	0.097781
2.300000	0.100740
2.301000	0.108960
2.302000	0.108303
2.303000	0.114550
2.304000	0.100740
2.305000	0.090547
2.306000	0.088903
2.307000	0.087259
2.308000	0.093835
2.309000	0.098767
2.310000	0.104028
2.311000	0.111262
2.312000	0.107316
2.313000	0.117510
2.314000	0.128689
2.315000	0.133950
2.316000	0.128360
2.317000	0.123757
2.318000	0.125730
2.319000	0.138553
2.320000	0.141513
2.321000	0.132964
2.322000	0.124415
2.323000	0.118496
2.324000	0.116852
2.325000	0.124415
2.326000	0.118167
2.327000	0.108632
2.328000	0.109289
2.329000	0.111920
2.330000	0.129018
2.331000	0.136252
2.332000	0.146445
2.333000	0.146116
2.334000	0.142828
2.335000	0.141842
2.336000	0.149404
2.337000	0.152692
2.338000	0.146116
2.339000	0.160255
2.340000	0.155980
2.341000	0.162885
2.342000	0.160584
2.343000	0.167818
2.344000	0.171763
2.345000	0.180970
2.346000	0.177024
2.347000	0.160255
2.348000	0.154665
2.349000	0.148418
2.350000	0.148747
2.351000	0.137567
2.352000	0.134937
2.353000	0.130004
2.354000	0.140197
2.355000	0.159269
2.356000	0.175380
2.357000	0.196753
2.358000	0.217797
2.359000	0.223387
2.360000	0.237854
2.361000	0.255939
2.362000	0.264488
2.363000	0.257912
2.364000	0.230949
2.365000	0.221085
2.366000	0.212536
2.367000	0.202672
2.368000	0.198726
2.369000	0.188204
2.370000	0.192807
2.371000	0.192150
2.372000	0.195109
2.373000	0.203000
2.374000	0.215495
2.375000	0.219112
2.376000	0.222729
2.377000	0.220756
2.378000	0.227990
2.379000	0.233909
2.380000	0.236210
2.381000	0.236210
2.382000	0.228977
2.383000	0.224702
2.384000	0.221085
2.385000	0.212207
2.386000	0.214509
2.387000	0.201685
2.388000	0.189848
2.389000	0.169791
2.390000	0.166174
2.391000	0.180312
2.392000	0.182614
2.393000	0.178011
2.394000	0.183272
2.395000	0.195109
2.396000	0.213522
2.397000	0.228319
2.398000	0.233251
2.399000	0.231607
2.400000	0.223387
2.401000	0.203329
2.402000	0.202672
2.403000	0.204316
2.404000	0.197739
2.405000	0.200041
2.406000	0.200699
2.407000	0.202343
2.408000	0.208919
2.409000	0.214180
2.410000	0.202672
2.411000	0.197411
2.412000	0.206946
2.413000	0.201356
2.414000	0.207275
2.415000	0.213851
2.416000	0.224044
2.417000	0.228648
2.418000	0.235882
2.419000	0.237526
2.420000	0.234238
2.421000	0.226346
2.422000	0.215824
2.423000	0.200699
2.424000	0.197739
2.425000	0.191821
2.426000	0.181299
2.427000	0.174394
2.428000	0.178340
2.429000	0.179326
2.430000	0.183601
2.431000	0.184587
2.432000	0.178011
2.433000	0.173407
2.434000	0.181957
2.435000	0.182285
2.436000	0.190506
2.437000	0.191492
2.438000	0.180641
2.439000	0.189848
2.440000	0.187546
2.441000	0.184258
2.442000	0.176038
2.443000	0.174394
2.444000	0.174394
2.445000	0.161241
2.446000	0.151048
2.447000	0.139869
2.448000	0.134608
2.449000	0.131320
2.450000	0.123099
2.451000	0.136252
2.452000	0.140197
2.453000	0.155323
2.454000	0.160584
2.455000	0.161241
2.456000	0.160255
2.457000	0.162228
2.458000	0.167489
2.459000	0.164530
2.460000	0.156638
2.461000	0.150391
2.462000	0.148747
2.463000	0.136909
2.464000	0.117510
2.465000	0.102055
2.466000	0.108303
2.467000	0.105672
2.468000	0.105015
2.469000	0.105344
2.470000	0.092849
2.471000	0.106330
2.472000	0.098110
2.473000	0.110604
2.474000	0.121126
2.475000	0.130004
2.476000	0.133621
2.477000	0.142170
2.478000	0.143486
2.479000	0.148747
2.480000	0.146116
2.481000	0.137567
2.482000	0.130004
2.483000	0.122771
2.484000	0.106001
2.485000	0.091205
2.486000	0.091862
2.487000	0.072462
2.488000	0.066873
2.489000	0.062927
2.490000	0.062269
2.491000	0.059639
2.492000	0.060296
2.493000	0.067530
2.494000	0.085286
2.495000	0.088245
2.496000	0.101727
2.497000	0.106330
2.498000	0.114550
2.499000	0.119482
2.500000	0.113235
2.501000	0.115208
2.502000	0.119154
2.503000	0.108960
2.504000	0.093177
2.505000	0.068845
2.506000	0.066873
2.507000	0.059639
2.508000	0.046486
2.509000	0.037937
2.510000	0.032019
2.511000	0.036293
2.512000	0.048130
2.513000	0.054378
2.514000	0.062269
2.515000	0.063256
2.516000	0.073120
2.517000	0.089232
2.518000	0.109947
2.519000	0.115537
2.520000	0.112249
2.521000	0.093177
2.522000	0.089889
2.523000	0.082984
2.524000	0.049117
2.525000	0.016893
2.526000	0.013934
2.527000	-0.001191
2.528000	-0.005137
2.529000	-0.004808
2.530000	0.006371
2.531000	0.006043
2.532000	0.008673
2.533000	0.013934
2.534000	0.025771
2.535000	0.032676
2.536000	0.024785
2.537000	0.015578
2.538000	0.009331
2.539000	0.016564
2.540000	-0.003493
2.541000	-0.010069
2.542000	-0.015001
2.543000	-0.020262
2.544000	-0.025852
2.545000	-0.035388
2.546000	-0.032428
2.547000	-0.035059
2.548000	-0.039991
2.549000	-0.042622
2.550000	-0.050513
2.551000	-0.048540
2.552000	-0.047225
2.553000	-0.052486
2.554000	-0.050513
2.555000	-0.046567
2.556000	-0.058404
2.557000	-0.050513
2.558000	-0.047225
2.559000	-0.039333
2.560000	-0.040649
2.561000	-0.052486
2.562000	-0.050842
2.563000	-0.046238
2.564000	-0.048540
2.565000	-0.063337
2.566000	-0.072543
2.567000	-0.070571
2.568000	-0.071886
2.569000	-0.074845
2.570000	-0.078462
2.571000	-0.085367
2.572000	-0.086025
2.573000	-0.079120
2.574000	-0.072543
2.575000	-0.065638
2.576000	-0.067282
2.577000	-0.068598
2.578000	-0.067940
2.579000	-0.054459
2.580000	-0.054788
2.581000	-0.062021
2.582000	-0.070242
2.583000	-0.072872
2.584000	-0.083065
2.585000	-0.081750
2.586000	-0.092601
2.587000	-0.101150
2.588000	-0.106082
2.589000	-0.111672
2.590000	-0.107069
2.591000	-0.112001
2.592000	-0.106740
2.593000	-0.101479
2.594000	-0.092930
2.595000	-0.075831
2.596000	-0.062021
2.597000	-0.054130
2.598000	-0.052486
2.599000	-0.057747
2.600000	-0.062350
2.601000	-0.056760
2.602000	-0.067611
2.603000	-0.081750
2.604000	-0.086682
2.605000	-0.080764
2.606000	-0.073859
2.607000	-0.075174
2.608000	-0.072543
2.609000	-0.073530
2.610000	-0.065638
2.611000	-0.061035
2.612000	-0.054788
2.613000	-0.046238
2.614000	-0.039991
2.615000	-0.030784
2.616000	-0.043279
2.617000	-0.040977
2.618000	-0.042622
2.619000	-0.033415
2.620000	-0.038676
2.621000	-0.041964
2.622000	-0.036703
2.623000	-0.024866
2.624000	-0.025852
2.625000	-0.016645
2.626000	-0.013686
2.627000	-0.013357
2.628000	-0.016317
2.629000	-0.009740
2.630000	-0.012700
2.631000	-0.008425
2.632000	-0.014673
2.633000	-0.012371
2.634000	-0.002835
2.635000	0.008015
2.636000	0.020181
2.637000	0.042541
2.638000	0.043198
2.639000	0.053391
2.640000	0.057666
2.641000	0.055364
2.642000	0.065557
2.643000	0.053063
2.644000	0.040568
2.645000	0.044513
2.646000	0.047802
2.647000	0.033991
2.648000	0.033005
2.649000	0.040239
2.650000	0.054049
2.651000	0.058324
2.652000	0.069832
2.653000	0.085944
2.654000	0.090547
2.655000	0.111591
2.656000	0.123757
2.657000	0.139869
2.658000	0.133292
2.659000	0.134937
2.660000	0.121784
2.661000	0.123757
2.662000	0.130991
2.663000	0.121784
2.664000	0.123757
2.665000	0.116194
2.666000	0.122113
2.667000	0.117510
2.668000	0.115865
2.669000	0.110933
2.670000	0.110604
2.671000	0.116194
2.672000	0.129018
2.673000	0.128360
2.674000	0.135594
2.675000	0.132306
2.676000	0.147103
2.677000	0.156638
2.678000	0.162885
2.679000	0.168804
2.680000	0.163214
2.681000	0.161899
2.682000	0.153679
2.683000	0.153679
2.684000	0.144143
2.685000	0.137896
2.686000	0.124743
2.687000	0.125730
2.688000	0.131320
2.689000	0.127374
2.690000	0.128689
2.691000	0.122771
2.692000	0.126716
2.693000	0.144143
2.694000	0.150062
2.695000	0.164201
2.696000	0.165187
2.697000	0.170119
2.698000	0.178997
2.699000	0.189190
2.700000	0.198068
2.701000	0.195767
2.702000	0.185902
2.703000	0.183272
2.704000	0.179326
2.705000	0.169791
2.706000	0.161241
2.707000	0.145130
2.708000	0.140526
2.709000	0.135265
2.710000	0.138225
2.711000	0.137238
2.712000	0.149075
2.713000	0.154994
2.714000	0.151048
2.715000	0.166831
2.716000	0.187217
2.717000	0.197082
2.718000	0.194123
2.719000	0.203658
2.720000	0.205960
2.721000	0.196095
2.722000	0.178011
2.723000	0.161241
2.724000	0.141184
2.725000	0.139540
2.726000	0.126716
2.727000	0.111591
2.728000	0.108632
2.729000	0.095150
2.730000	0.098438
2.731000	0.117510
2.732000	0.116523
2.733000	0.114879
2.734000	0.118167
2.735000	0.109618
2.736000	0.103042
2.737000	0.105672
2.738000	0.115865
2.739000	0.132306
2.740000	0.136252
2.741000	0.143814
2.742000	0.157624
2.743000	0.159597
2.744000	0.172092
2.745000	0.179984
2.746000	0.184258
2.747000	0.190177
2.748000	0.194780
2.749000	0.194123
2.750000	0.198726
2.751000	0.215166
2.752000	0.228648
2.753000	0.206617
2.754000	0.196095
2.755000	0.203000
2.756000	0.207933
2.757000	0.214509
2.758000	0.208261
2.759000	0.208261
2.760000	0.214180
2.761000	0.208261
2.762000	0.204973
2.763000	0.220099
2.764000	0.230621
2.765000	0.235224
2.766000	0.239170
2.767000	0.247061
2.768000	0.247390
2.769000	0.239498
2.770000	0.229634
2.771000	0.234238
2.772000	0.226346
2.773000	0.214180
2.774000	0.193794
2.775000	0.176696
2.776000	0.179655
2.777000	0.175051
2.778000	0.169791
2.779000	0.164858
2.780000	0.173736
2.781000	0.184258
2.782000	0.200699
2.783000	0.214838
2.784000	0.207933
2.785000	0.209905
2.786000	0.215495
2.787000	0.205302
2.788000	0.212207
2.789000	0.212207
2.790000	0.210234
2.791000	0.202672
2.792000	0.197411
2.793000	0.209577
2.794000	0.212536
2.795000	0.213194
2.796000	0.214838
2.797000	0.220099
2.798000	0.208919
2.799000	0.204644
2.800000	0.177024
2.801000	0.162557
2.802000	0.154994
2.803000	0.153679
2.804000	0.163872
2.805000	0.167818
2.806000	0.177024
2.807000	0.187546
2.808000	0.202343
2.809000	0.215824
2.810000	0.214180
2.811000	0.210563
2.812000	0.199712
2.813000	0.203658
2.814000	0.208919
2.815000	0.217468
2.816000	0.223387
2.817000	0.223387
2.818000	0.202672
2.819000	0.197739
2.820000	0.206946
2.821000	0.220427
2.822000	0.218126
2.823000	0.204644
2.824000	0.202343
2.825000	0.211550
2.826000	0.232265
2.827000	0.245746
2.828000	0.244102
2.829000	0.207604
2.830000	0.176696
2.831000	0.168146
2.832000	0.180970
2.833000	0.188533
2.834000	0.184258
2.835000	0.166174
2.836000	0.160913
2.837000	0.177024
2.838000	0.204973
2.839000	0.233580
2.840000	0.240485
2.841000	0.236868
2.842000	0.227661
2.843000	0.227661
2.844000	0.218126
2.845000	0.198068
2.846000	0.177353
2.847000	0.174723
2.848000	0.175380
2.849000	0.182285
2.850000	0.196095
2.851000	0.190834
2.852000	0.196753
2.853000	0.195109
2.854000	0.205302
2.855000	0.207933
2.856000	0.211878
2.857000	0.218455
2.858000	0.217139
2.859000	0.222400
2.860000	0.218455
2.861000	0.219112
2.862000	0.196424
2.863000	0.183601
2.864000	0.178011
2.865000	0.178668
2.866000	0.163543
2.867000	0.161570
2.868000	0.168475
2.869000	0.170777
2.870000	0.165516
2.871000	0.175709
2.872000	0.175709
2.873000	0.180312
2.874000	0.184587
2.875000	0.185245
2.876000	0.187217
2.877000	0.192478
2.878000	0.192478
2.879000	0.204973
2.880000	0.215495
2.881000	0.221085
2.882000	0.213851
2.883000	0.187546
2.884000	0.178997
2.885000	0.174394
2.886000	0.175380
2.887000	0.175709
2.888000	0.183601
2.889000	0.178668
2.890000	0.186560
2.891000	0.208590
2.892000	0.207604
2.893000	0.211221
2.894000	0.218126
2.895000	0.210563
2.896000	0.211221
2.897000	0.218126
2.898000	0.210563
2.899000	0.201028
2.900000	0.200699
2.901000	0.201028
2.902000	0.188862
2.903000	0.190834
2.904000	0.192478
2.905000	0.193794
2.906000	0.196424
2.907000	0.204973
2.908000	0.212865
2.909000	0.205302
2.910000	0.195767
2.911000	0.197411
2.912000	0.205302
2.913000	0.207933
2.914000	0.212865
2.915000	0.217139
2.916000	0.214838
2.917000	0.218126
2.918000	0.228319
2.919000	0.236210
2.920000	0.228319
2.921000	0.227990
2.922000	0.227661
2.923000	0.214180
2.924000	0.220099
2.925000	0.213522
2.926000	0.204644
2.927000	0.193465
2.928000	0.184258
2.929000	0.182943
2.930000	0.180312
2.931000	0.189848
2.932000	0.193136
2.933000	0.189848
2.934000	0.190177
2.935000	0.198397
2.936000	0.196095
2.937000	0.214180
2.938000	0.211221
2.939000	0.206946
2.940000	0.209905
2.941000	0.220099
2.942000	0.220427
2.943000	0.229634
2.944000	0.224373
2.945000	0.217797
2.946000	0.222400
2.947000	0.222729
2.948000	0.224373
2.949000	0.209248
2.950000	0.191163
2.951000	0.179326
2.952000	0.174723
2.953000	0.169462
2.954000	0.159269
2.955000	0.156638
2.956000	0.164201
2.957000	0.161241
2.958000	0.168804
2.959000	0.190506
2.960000	0.205302
2.961000	0.222729
2.962000	0.245746
2.963000	0.260214
2.964000	0.249692
2.965000	0.239498
2.966000	0.226346
2.967000	0.218455
2.968000	0.208590
2.969000	0.201356
2.970000	0.202014
2.971000	0.195438
2.972000	0.199712
2.973000	0.201685
2.974000	0.206289
2.975000	0.213522
2.976000	0.217139
2.977000	0.213522
2.978000	0.204644
2.979000	0.197411
2.980000	0.200370
2.981000	0.195109
2.982000	0.185245
2.983000	0.176367
2.984000	0.179655
2.985000	0.184916
2.986000	0.182943
2.987000	0.174723
2.988000	0.173736
2.989000	0.163543
2.990000	0.166174
2.991000	0.163543
2.992000	0.162557
2.993000	0.172092
2.994000	0.165187
2.995000	0.175380
2.996000	0.179655
2.997000	0.184258
2.998000	0.190506
2.999000	0.195438
3.000000	0.201685
3.001000	0.195767
3.002000	0.181628
3.003000	0.178340
3.004000	0.175051
3.005000	0.170777
3.006000	0.162228
3.007000	0.156309
3.008000	0.151048
3.009000	0.151048
3.010000	0.152364
3.011000	0.150391
3.012000	0.154994
3.013000	0.161899
3.014000	0.169133
3.015000	0.177353
3.016000	0.181957
3.017000	0.189519
3.018000	0.193136
3.019000	0.192478
3.020000	0.182614
3.021000	0.185902
3.022000	0.177682
3.023000	0.154665
3.024000	0.139211
3.025000	0.138225
3.026000	0.134937
3.027000	0.125730
3.028000	0.127045
3.029000	0.132306
3.030000	0.151048
3.031000	0.171435
3.032000	0.181299
3.033000	0.190834
3.034000	0.200041
3.035000	0.212207
3.036000	0.214509
3.037000	0.225360
3.038000	0.220427
3.039000	0.209248
3.040000	0.202672
3.041000	0.202014
3.042000	0.193465
3.043000	0.187546
3.044000	0.180641
3.045000	0.184587
3.046000	0.180970
3.047000	0.175051
3.048000	0.168475
3.049000	0.176367
3.050000	0.168475
3.051000	0.158282
3.052000	0.164530
3.053000	0.176038
3.054000	0.185573
3.055000	0.189190
3.056000	0.207275
3.057000	0.217139
3.058000	0.219441
3.059000	0.226346
3.060000	0.209248
3.061000	0.206946
3.062000	0.198726
3.063000	0.191492
3.064000	0.196753
3.065000	0.182943
3.066000	0.175709
3.067000	0.159597
3.068000	0.160255
3.069000	0.151706
3.070000	0.157296
3.071000	0.159597
3.072000	0.162885
3.073000	0.172092
3.074000	0.190506
3.075000	0.205960
3.076000	0.211221
3.077000	0.221414
3.078000	0.218783
3.079000	0.213851
3.080000	0.217139
3.081000	0.208919
3.082000	0.207933
3.083000	0.189848
3.084000	0.187217
3.085000	0.174723
3.086000	0.170119
3.087000	0.161570
3.088000	0.162557
3.089000	0.161899
3.090000	0.165516
3.091000	0.178011
3.092000	0.192150
3.093000	0.204973
3.094000	0.209905
3.095000	0.216153
3.096000	0.225360
3.097000	0.225360
3.098000	0.228977
3.099000	0.229634
3.100000	0.226017
3.101000	0.230292
3.102000	0.237197
3.103000	0.240156
3.104000	0.231936
3.105000	0.218126
3.106000	0.219441
3.107000	0.209905
3.108000	0.208919
3.109000	0.203329
3.110000	0.199384
3.111000	0.194123
3.112000	0.186889
3.113000	0.187546
3.114000	0.196424
3.115000	0.201356
3.116000	0.214180
3.117000	0.214838
3.118000	0.230621
3.119000	0.236210
3.120000	0.242129
3.121000	0.241143
3.122000	0.243115
3.123000	0.252322
3.124000	0.249692
3.125000	0.246075
3.126000	0.237197
3.127000	0.216482
3.128000	0.217468
3.129000	0.212536
3.130000	0.214180
3.131000	0.205960
3.132000	0.210892
3.133000	0.214509
3.134000	0.223058
3.135000	0.230292
3.136000	0.234238
3.137000	0.240814
3.138000	0.234895
3.139000	0.236210
3.140000	0.227661
3.141000	0.240814
3.142000	0.242129
3.143000	0.230949
3.144000	0.231278
3.145000	0.212207
3.146000	0.197411
3.147000	0.192807
3.148000	0.197739
3.149000	0.195109
3.150000	0.194780
3.151000	0.202343
3.152000	0.208590
3.153000	0.209905
3.154000	0.213851
3.155000	0.223058
3.156000	0.224373
3.157000	0.230949
3.158000	0.236868
3.159000	0.243773
3.160000	0.238841
3.161000	0.234238
3.162000	0.228648
3.163000	0.229963
3.164000	0.225688
3.165000	0.214509
3.166000	0.209577
3.167000	0.200699
3.168000	0.193794
3.169000	0.189848
3.170000	0.183272
3.171000	0.183601
3.172000	0.185902
3.173000	0.188204
3.174000	0.197739
3.175000	0.195438
3.176000	0.195438
3.177000	0.201356
3.178000	0.208261
3.179000	0.207275
3.180000	0.207933
3.181000	0.201685
3.182000	0.192150
3.183000	0.193136
3.184000	0.186889
3.185000	0.177024
3.186000	0.168804
3.187000	0.162228
3.188000	0.156309
3.189000	0.149404
3.190000	0.154336
3.191000	0.155323
3.192000	0.152692
3.193000	0.162557
3.194000	0.161899
3.195000	0.172421
3.196000	0.182943
3.197000	0.194780
3.198000	0.192150
3.199000	0.191163
3.200000	0.193794
3.201000	0.191163
3.202000	0.178997
3.203000	0.176696
3.204000	0.166502
3.205000	0.157624
3.206000	0.154994
3.207000	0.151377
3.208000	0.148747
3.209000	0.157624
3.210000	0.156967
3.211000	0.149733
3.212000	0.159269
3.213000	0.164201
3.214000	0.168475
3.215000	0.163872
3.216000	0.178340
3.217000	0.185245
3.218000	0.183929
3.219000	0.173736
3.220000	0.167489
3.221000	0.169133
3.222000	0.167489
3.223000	0.158282
3.224000	0.159597
3.225000	0.157296
3.226000	0.147760
3.227000	0.138553
3.228000	0.142828
3.229000	0.133950
3.230000	0.134608
3.231000	0.135923
3.232000	0.137896
3.233000	0.139540
3.234000	0.141842
3.235000	0.139869
3.236000	0.142170
3.237000	0.157296
3.238000	0.153021
3.239000	0.161570
3.240000	0.158611
3.241000	0.160584
3.242000	0.153021
3.243000	0.143814
3.244000	0.140197
3.245000	0.128360
3.246000	0.125730
3.247000	0.130004
3.248000	0.118167
3.249000	0.106330
3.250000	0.106988
3.251000	0.108960
3.252000	0.110276
3.253000	0.114221
3.254000	0.116523
3.255000	0.128360
3.256000	0.130004
3.257000	0.146116
3.258000	0.154008
3.259000	0.159926
3.260000	0.160255
3.261000	0.169133
3.262000	0.176038
3.263000	0.172092
3.264000	0.172092
3.265000	0.160913
3.266000	0.159926
3.267000	0.151706
3.268000	0.140855
3.269000	0.136252
3.270000	0.127374
3.271000	0.109947
3.272000	0.111591
3.273000	0.122771
3.274000	0.144472
3.275000	0.153679
3.276000	0.165187
3.277000	0.175380
3.278000	0.184587
3.279000	0.187217
3.280000	0.190177
3.281000	0.190506
3.282000	0.183601
3.283000	0.172092
3.284000	0.182285
3.285000	0.181957
3.286000	0.172421
3.287000	0.166174
3.288000	0.165845
3.289000	0.163872
3.290000	0.161899
3.291000	0.167489
3.292000	0.172750
3.293000	0.184258
3.294000	0.187875
3.295000	0.203329
3.296000	0.211221
3.297000	0.212207
3.298000	0.202343
3.299000	0.202014
3.300000	0.200041
3.301000	0.194451
3.302000	0.193794
3.303000	0.180312
3.304000	0.170448
3.305000	0.154336
3.306000	0.160584
3.307000	0.158611
3.308000	0.164530
3.309000	0.159597
3.310000	0.161241
3.311000	0.167489
3.312000	0.172421
3.313000	0.175709
3.314000	0.170119
3.315000	0.176038
3.316000	0.182943
3.317000	0.192807
3.318000	0.203000
3.319000	0.207275
3.320000	0.208919
3.321000	0.203000
3.322000	0.189519
3.323000	0.184916
3.324000	0.185245
3.325000	0.179655
3.326000	0.161899
3.327000	0.160913
3.328000	0.154336
3.329000	0.154008
3.330000	0.150719
3.331000	0.144472
3.332000	0.148418
3.333000	0.150062
3.334000	0.153679
3.335000	0.156967
3.336000	0.157953
3.337000	0.163214
3.338000	0.162557
3.339000	0.168146
3.340000	0.172421
3.341000	0.164201
3.342000	0.163872
3.343000	0.154665
3.344000	0.164530
3.345000	0.175380
3.346000	0.163872
3.347000	0.161899
3.348000	0.150062
3.349000	0.141184
3.350000	0.141184
3.351000	0.141184
3.352000	0.144143
3.353000	0.153679
3.354000	0.143486
3.355000	0.149733
3.356000	0.162557
3.357000	0.173736
3.358000	0.165845
3.359000	0.161899
3.360000	0.155652
3.361000	0.166831
3.362000	0.163543
3.363000	0.160255
3.364000	0.149733
3.365000	0.144143
3.366000	0.146774
3.367000	0.154336
3.368000	0.140526
3.369000	0.130662
3.370000	0.128360
3.371000	0.130333
3.372000	0.140197
3.373000	0.139540
3.374000	0.142828
3.375000	0.133950
3.376000	0.138882
3.377000	0.141842
3.378000	0.142828
3.379000	0.144472
3.380000	0.131320
3.381000	0.123099
3.382000	0.127045
3.383000	0.123099
3.384000	0.113893
3.385000	0.110276
3.386000	0.109947
3.387000	0.106988
3.388000	0.103699
3.389000	0.108303
3.390000	0.115865
3.391000	0.112249
3.392000	0.110276
3.393000	0.114550
3.394000	0.114879
3.395000	0.125072
3.396000	0.131648
3.397000	0.131977
3.398000	0.129347
3.399000	0.126059
3.400000	0.125401
3.401000	0.121126
3.402000	0.118496
3.403000	0.120140
3.404000	0.109947
3.405000	0.108960
3.406000	0.099754
3.407000	0.084300
3.408000	0.080683
3.409000	0.074435
3.410000	0.086272
3.411000	0.073778
3.412000	0.072791
3.413000	0.072134
3.414000	0.074764
3.415000	0.077395
3.416000	0.074106
3.417000	0.079039
3.418000	0.077066
3.419000	0.074435
3.420000	0.072134
3.421000	0.073120
3.422000	0.069832
3.423000	0.074106
3.424000	0.064242
3.425000	0.051747
3.426000	0.046815
3.427000	0.042212
3.428000	0.050432
3.429000	0.039252
3.430000	0.028730
3.431000	0.022154
3.432000	0.023798
3.433000	0.038924
3.434000	0.041225
3.435000	0.035307
3.436000	0.026100
3.437000	0.020839
3.438000	0.029059
3.439000	0.046157
3.440000	0.049774
3.441000	0.043527
3.442000	0.030703
3.443000	0.030046
3.444000	0.035636
3.445000	0.035307
3.446000	0.036951
3.447000	0.032019
3.448000	0.023798
3.449000	0.018537
3.450000	0.013934
3.451000	0.013605
3.452000	0.009331
3.453000	0.002097
3.454000	0.003412
3.455000	0.013276
3.456000	0.025771
3.457000	0.017880
3.458000	0.006043
3.459000	0.002754
3.460000	0.011303
3.461000	0.011303
3.462000	0.019195
3.463000	0.018537
3.464000	0.026758
3.465000	0.015907
3.466000	0.008344
3.467000	-0.000534
3.468000	0.003083
3.469000	-0.013357
3.470000	-0.026510
3.471000	-0.028154
3.472000	-0.033744
3.473000	-0.051499
3.474000	-0.047883
3.475000	-0.054130
3.476000	-0.049855
3.477000	-0.059391
3.478000	-0.069913
3.479000	-0.076489
3.480000	-0.088655
3.481000	-0.103780
3.482000	-0.112987
3.483000	-0.118248
3.484000	-0.133045
3.485000	-0.154746
3.486000	-0.179407
3.487000	-0.193217
3.488000	-0.202753
3.489000	-0.213275
3.490000	-0.214590
3.491000	-0.205712
3.492000	-0.199793
3.493000	-0.193875
3.494000	-0.190258
3.495000	-0.167899
3.496000	-0.163953
3.497000	-0.150143
3.498000	-0.141265
3.499000	-0.152116
3.500000	-0.166255
3.501000	-0.170200
3.502000	-0.175790
3.503000	-0.179407
3.504000	-0.184010
3.505000	-0.185326
3.506000	-0.186312
3.507000	-0.189600
3.508000	-0.167241
3.509000	-0.162309
3.510000	-0.163295
3.511000	-0.164611
3.512000	-0.160994
3.513000	-0.161651
3.514000	-0.160994
3.515000	-0.155404
3.516000	-0.159350
3.517000	-0.160007
3.518000	-0.168885
3.519000	-0.173817
3.520000	-0.184339
3.521000	-0.187956
3.522000	-0.189600
3.523000	-0.203081
3.524000	-0.223139
3.525000	-0.227085
3.526000	-0.236949
3.527000	-0.245498
3.528000	-0.244183
3.529000	-0.262267
3.530000	-0.260295
3.531000	-0.258979
3.532000	-0.257664
3.533000	-0.257006
3.534000	-0.251088
3.535000	-0.254705
3.536000	-0.254047
3.537000	-0.262267
3.538000	-0.262267
3.539000	-0.260623
3.540000	-0.263583
3.541000	-0.276078
3.542000	-0.285942
3.543000	-0.284627
3.544000	-0.287586
3.545000	-0.298437
3.546000	-0.306986
3.547000	-0.320138
3.548000	-0.322440
3.549000	-0.323755
3.550000	-0.326057
3.551000	-0.326714
3.552000	-0.322111
3.553000	-0.327701
3.554000	-0.323098
3.555000	-0.318823
3.556000	-0.319809
3.557000	-0.321782
3.558000	-0.333620
3.559000	-0.332962
3.560000	-0.333291
3.561000	-0.327701
3.562000	-0.323098
3.563000	-0.334277
3.564000	-0.326057
3.565000	-0.335592
3.566000	-0.332962
3.567000	-0.335592
3.568000	-0.331318
3.569000	-0.337236
3.570000	-0.338880
3.571000	-0.345786
3.572000	-0.343813
3.573000	-0.347430
3.574000	-0.349402
3.575000	-0.333948
3.576000	-0.338552
3.577000	-0.323755
3.578000	-0.326057
3.579000	-0.321453
3.580000	-0.326714
3.581000	-0.322111
3.582000	-0.317179
3.583000	-0.327043
3.584000	-0.333948
3.585000	-0.346772
3.586000	-0.362555
3.587000	-0.364857
3.588000	-0.359924
3.589000	-0.353677
3.590000	-0.353348
3.591000	-0.355650
3.592000	-0.345457
3.593000	-0.338552
3.594000	-0.329016
3.595000	-0.329345
3.596000	-0.331647
3.597000	-0.325728
3.598000	-0.338223
3.599000	-0.343155
3.600000	-0.347430
3.601000	-0.354663
3.602000	-0.349074
3.603000	-0.345457
3.604000	-0.345786
3.605000	-0.343155
3.606000	-0.339867
3.607000	-0.352362
3.608000	-0.348745
3.609000	-0.352362
3.610000	-0.350718
3.611000	-0.357623
3.612000	-0.355321
3.613000	-0.382941
3.614000	-0.397409
3.615000	-0.386229
3.616000	-0.378667
3.617000	-0.368802
3.618000	-0.370775
3.619000	-0.364199
3.620000	-0.363870
3.621000	-0.345786
3.622000	-0.345128
3.623000	-0.347430
3.624000	-0.367158
3.625000	-0.381297
3.626000	-0.386558
3.627000	-0.404643
3.628000	-0.402999
3.629000	-0.404643
3.630000	-0.384914
3.631000	-0.389517
3.632000	-0.378009
3.633000	-0.388860
3.634000	-0.382941
3.635000	-0.370446
3.636000	-0.369131
3.637000	-0.364528
3.638000	-0.372419
3.639000	-0.380640
3.640000	-0.385572
3.641000	-0.378995
3.642000	-0.384256
3.643000	-0.385243
3.644000	-0.400697
3.645000	-0.403985
3.646000	-0.411548
3.647000	-0.409904
3.648000	-0.404314
3.649000	-0.406287
3.650000	-0.412205
3.651000	-0.406616
3.652000	-0.406616
3.653000	-0.403656
3.654000	-0.397409
3.655000	-0.391819
3.656000	-0.396422
3.657000	-0.398395
3.658000	-0.392806
3.659000	-0.394778
3.660000	-0.400039
3.661000	-0.417138
3.662000	-0.427660
3.663000	-0.425687
3.664000	-0.423714
3.665000	-0.441141
3.666000	-0.441470
3.667000	-0.445087
3.668000	-0.445744
3.669000	-0.440154
3.670000	-0.429632
3.671000	-0.422070
3.672000	-0.422399
3.673000	-0.412534
3.674000	-0.406944
3.675000	-0.396422
3.676000	-0.387873
3.677000	-0.392148
3.678000	-0.393792
3.679000	-0.397080
3.680000	-0.386229
3.681000	-0.377351
3.682000	-0.385243
3.683000	-0.391161
3.684000	-0.389189
3.685000	-0.399053
3.686000	-0.409575
3.687000	-0.422399
3.688000	-0.427660
3.689000	-0.427331
3.690000	-0.421741
3.691000	-0.407931
3.692000	-0.404972
3.693000	-0.394121
3.694000	-0.380311
3.695000	-0.372419
3.696000	-0.369131
3.697000	-0.372090
3.698000	-0.373734
3.699000	-0.397738
3.700000	-0.406287
3.701000	-0.408588
3.702000	-0.412863
3.703000	-0.399711
3.704000	-0.403985
3.705000	-0.408260
3.706000	-0.411877
3.707000	-0.415165
3.708000	-0.399711
3.709000	-0.406616
3.710000	-0.401026
3.711000	-0.399382
3.712000	-0.407273
3.713000	-0.391819
3.714000	-0.386229
3.715000	-0.393463
3.716000	-0.395765
3.717000	-0.378338
3.718000	-0.373734
3.719000	-0.371104
3.720000	-0.371104
3.721000	-0.379982
3.722000	-0.380968
3.723000	-0.380640
3.724000	-0.383928
3.725000	-0.382941
3.726000	-0.397409
3.727000	-0.402012
3.728000	-0.413192
3.729000	-0.421741
3.730000	-0.428317
3.731000	-0.446073
3.732000	-0.446402
3.733000	-0.440154
3.734000	-0.428975
3.735000	-0.418453
3.736000	-0.406616
3.737000	-0.389517
3.738000	-0.379324
3.739000	-0.357952
3.740000	-0.349402
3.741000	-0.339538
3.742000	-0.346443
3.743000	-0.355321
3.744000	-0.362555
3.745000	-0.366829
3.746000	-0.374721
3.747000	-0.375050
3.748000	-0.376365
3.749000	-0.383928
3.750000	-0.392148
3.751000	-0.379324
3.752000	-0.378009
3.753000	-0.365843
3.754000	-0.364857
3.755000	-0.354006
3.756000	-0.347101
3.757000	-0.328359
3.758000	-0.319809
3.759000	-0.304355
3.760000	-0.308959
3.761000	-0.316193
3.762000	-0.316193
3.763000	-0.316193
3.764000	-0.325399
3.765000	-0.321453
3.766000	-0.331975
3.767000	-0.329345
3.768000	-0.327701
3.769000	-0.329016
3.770000	-0.313562
3.771000	-0.316850
3.772000	-0.321453
3.773000	-0.312247
3.774000	-0.298108
3.775000	-0.306657
3.776000	-0.306986
3.777000	-0.307643
3.778000	-0.307643
3.779000	-0.297779
3.780000	-0.290216
3.781000	-0.282325
3.782000	-0.272789
3.783000	-0.265884
3.784000	-0.255362
3.785000	-0.245169
3.786000	-0.251417
3.787000	-0.256678
3.788000	-0.257006
3.789000	-0.257664
3.790000	-0.258651
3.791000	-0.256678
3.792000	-0.256020
3.793000	-0.254705
3.794000	-0.255362
3.795000	-0.243854
3.796000	-0.239908
3.797000	-0.230702
3.798000	-0.237935
3.799000	-0.225112
3.800000	-0.221166
3.801000	-0.221495
3.802000	-0.213932
3.803000	-0.221166
3.804000	-0.230044
3.805000	-0.227413
3.806000	-0.231030
3.807000	-0.237607
3.808000	-0.224454
3.809000	-0.233003
3.810000	-0.235634
3.811000	-0.227742
3.812000	-0.228729
3.813000	-0.220837
3.814000	-0.212617
3.815000	-0.212617
3.816000	-0.206698
3.817000	-0.195519
3.818000	-0.185654
3.819000	-0.173160
3.820000	-0.176448
3.821000	-0.179407
3.822000	-0.181380
3.823000	-0.178421
3.824000	-0.189271
3.825000	-0.186312
3.826000	-0.184997
3.827000	-0.182695
3.828000	-0.176448
3.829000	-0.179078
3.830000	-0.168227
3.831000	-0.168556
3.832000	-0.176119
3.833000	-0.168227
3.834000	-0.171844
3.835000	-0.168885
3.836000	-0.165597
3.837000	-0.153102
3.838000	-0.152773
3.839000	-0.147184
3.840000	-0.145211
3.841000	-0.146855
3.842000	-0.152773
3.843000	-0.154089
3.844000	-0.162309
3.845000	-0.160994
3.846000	-0.167241
3.847000	-0.190258
3.848000	-0.175461
3.849000	-0.161651
3.850000	-0.143567
3.851000	-0.138634
3.852000	-0.128112
3.853000	-0.127784
3.854000	-0.123509
3.855000	-0.111672
3.856000	-0.110685
3.857000	-0.108713
3.858000	-0.109041
3.859000	-0.105424
3.860000	-0.098848
3.861000	-0.093587
3.862000	-0.089313
3.863000	-0.093587
3.864000	-0.092930
3.865000	-0.102465
3.866000	-0.092272
3.867000	-0.095889
3.868000	-0.103452
3.869000	-0.119563
3.870000	-0.127126
3.871000	-0.128112
3.872000	-0.129757
3.873000	-0.115618
3.874000	-0.111014
3.875000	-0.115946
3.876000	-0.105753
3.877000	-0.085367
3.878000	-0.080106
3.879000	-0.066625
3.880000	-0.053472
3.881000	-0.052157
3.882000	-0.058076
3.883000	-0.066954
3.884000	-0.055774
3.885000	-0.063008
3.886000	-0.073530
3.887000	-0.075831
3.888000	-0.072872
3.889000	-0.063337
3.890000	-0.057418
3.891000	-0.053472
3.892000	-0.064323
3.893000	-0.055116
3.894000	-0.056760
3.895000	-0.049855
3.896000	-0.050184
3.897000	-0.056432
3.898000	-0.051499
3.899000	-0.050184
3.900000	-0.047554
3.901000	-0.051171
3.902000	-0.055116
3.903000	-0.063994
3.904000	-0.078133
3.905000	-0.077804
3.906000	-0.093258
3.907000	-0.085367
3.908000	-0.087340
3.909000	-0.081092
3.910000	-0.075503
3.911000	-0.065967
3.912000	-0.062350
3.913000	-0.059720
3.914000	-0.053472
3.915000	-0.041635
3.916000	-0.037361
3.917000	-0.028154
3.918000	-0.030784
3.919000	-0.018618
3.920000	-0.010398
3.921000	-0.017632
3.922000	-0.025523
3.923000	-0.033086
3.924000	-0.033744
3.925000	-0.044266
3.926000	-0.042950
3.927000	-0.040320
3.928000	-0.045581
3.929000	-0.041635
3.930000	-0.030127
3.931000	-0.030784
3.932000	-0.012371
3.933000	-0.006452
3.934000	-0.001520
3.935000	-0.001849
3.936000	0.001439
3.937000	0.014920
3.938000	0.023470
3.939000	0.028730
3.940000	0.014592
3.941000	0.021168
3.942000	0.023141
3.943000	0.022154
3.944000	0.025442
3.945000	0.021825
3.946000	0.009988
3.947000	0.008673
3.948000	0.001768
3.949000	0.008344
3.950000	0.009002
3.951000	0.008344
3.952000	0.006371
3.953000	0.008673
3.954000	0.011961
3.955000	0.026758
3.956000	0.032676
3.957000	0.049446
3.958000	0.046815
3.959000	0.048788
3.960000	0.054707
3.961000	0.062927
3.962000	0.061283
3.963000	0.049774
3.964000	0.045500
3.965000	0.032347
3.966000	0.020839
3.967000	0.018537
3.968000	0.014920
3.969000	0.012948
3.970000	0.014263
3.971000	0.013276
3.972000	0.019524
3.973000	0.021497
3.974000	0.031690
3.975000	0.042541
3.976000	0.044842
3.977000	0.057666
3.978000	0.057337
3.979000	0.054707
3.980000	0.050761
3.981000	0.065229
3.982000	0.074764
3.983000	0.069174
3.984000	0.076408
3.985000	0.077066
3.986000	0.074106
3.987000	0.071476
3.988000	0.072462
3.989000	0.064242
3.990000	0.058324
3.991000	0.053391
3.992000	0.051747
3.993000	0.054049
3.994000	0.055035
3.995000	0.055693
3.996000	0.053391
3.997000	0.063584
3.998000	0.061940
3.999000	0.053391
4.000000	0.051418
4.001000	0.048459
4.002000	0.056351
4.003000	0.065557
4.004000	0.073449
4.005000	0.063913
4.006000	0.058981
4.007000	0.043856
4.008000	0.051418
4.009000	0.056679
4.010000	0.059968
4.011000	0.057008
4.012000	0.064242
4.013000	0.069174
4.014000	0.083642
4.015000	0.096794
4.016000	0.098110
4.017000	0.121784
4.018000	0.131977
4.019000	0.124743
4.020000	0.119811
4.021000	0.121455
4.022000	0.123428
4.023000	0.115865
4.024000	0.120140
4.025000	0.122442
4.026000	0.127703
4.027000	0.133621
4.028000	0.131977
4.029000	0.132964
4.030000	0.123099
4.031000	0.116852
4.032000	0.126059
4.033000	0.128031
4.034000	0.132306
4.035000	0.128360
4.036000	0.126716
4.037000	0.138225
4.038000	0.135594
4.039000	0.135923
4.040000	0.133621
4.041000	0.133292
4.042000	0.129676
4.043000	0.123428
4.044000	0.120469
4.045000	0.111591
4.046000	0.118167
4.047000	0.118825
4.048000	0.134608
4.049000	0.145130
4.050000	0.151048
4.051000	0.148747
4.052000	0.154665
4.053000	0.167160
4.054000	0.170119
4.055000	0.163214
4.056000	0.158611
4.057000	0.157953
4.058000	0.155980
4.059000	0.160913
4.060000	0.151048
4.061000	0.146445
4.062000	0.139869
4.063000	0.137567
4.064000	0.133621
4.065000	0.126716
4.066000	0.125072
4.067000	0.117838
4.068000	0.127374
4.069000	0.126716
4.070000	0.133621
4.071000	0.140197
4.072000	0.146116
4.073000	0.150719
4.074000	0.156638
4.075000	0.173079
4.076000	0.176038
4.077000	0.158611
4.078000	0.152364
4.079000	0.162228
4.080000	0.164530
4.081000	0.166174
4.082000	0.158940
4.083000	0.168475
4.084000	0.156638
4.085000	0.149404
4.086000	0.152692
4.087000	0.141513
4.088000	0.137238
4.089000	0.125401
4.090000	0.132635
4.091000	0.140197
4.092000	0.141513
4.093000	0.135265
4.094000	0.133292
4.095000	0.147760
4.096000	0.157953
4.097000	0.168804
4.098000	0.164530
4.099000	0.167489
4.100000	0.161899
4.101000	0.159597
4.102000	0.158940
4.103000	0.151706
4.104000	0.133950
4.105000	0.109618
4.106000	0.100740
4.107000	0.099754
4.108000	0.098767
4.109000	0.095808
4.110000	0.104686
4.111000	0.109289
4.112000	0.122771
4.113000	0.140197
4.114000	0.149404
4.115000	0.147760
4.116000	0.139869
4.117000	0.146445
4.118000	0.135923
4.119000	0.122771
4.120000	0.113893
4.121000	0.112906
4.122000	0.118167
4.123000	0.125401
4.124000	0.137238
4.125000	0.139869
4.126000	0.138882
4.127000	0.137567
4.128000	0.136581
4.129000	0.128689
4.130000	0.121784
4.131000	0.115208
4.132000	0.098767
4.133000	0.102713
4.134000	0.111262
4.135000	0.124743
4.136000	0.123428
4.137000	0.130991
4.138000	0.126716
4.139000	0.126387
4.140000	0.127703
4.141000	0.121126
4.142000	0.113893
4.143000	0.100083
4.144000	0.091533
4.145000	0.072134
4.146000	0.064242
4.147000	0.062598
4.148000	0.060954
4.149000	0.057995
4.150000	0.058324
4.151000	0.061612
4.152000	0.070161
4.153000	0.072134
4.154000	0.068517
4.155000	0.069174
4.156000	0.075093
4.157000	0.068845
4.158000	0.066544
4.159000	0.070818
4.160000	0.075750
4.161000	0.080025
4.162000	0.098438
4.163000	0.098767
4.164000	0.090218
4.165000	0.089232
4.166000	0.085615
4.167000	0.078710
4.168000	0.070490
4.169000	0.068517
4.170000	0.064900
4.171000	0.060625
4.172000	0.059639
4.173000	0.059639
4.174000	0.074106
4.175000	0.074106
4.176000	0.078052
4.177000	0.084300
4.178000	0.084628
4.179000	0.086601
4.180000	0.082984
4.181000	0.082327
4.182000	0.081011
4.183000	0.074435
4.184000	0.077395
4.185000	0.063256
4.186000	0.053063
4.187000	0.051090
4.188000	0.038924
4.189000	0.047473
4.190000	0.048130
4.191000	0.046157
4.192000	0.051418
4.193000	0.056022
4.194000	0.061612
4.195000	0.068517
4.196000	0.077066
4.197000	0.074106
4.198000	0.076079
4.199000	0.072462
4.200000	0.071805
4.201000	0.074106
4.202000	0.067201
4.203000	0.065229
4.204000	0.061283
4.205000	0.055035
4.206000	0.054049
4.207000	0.043856
4.208000	0.049774
4.209000	0.037608
4.210000	0.043198
4.211000	0.049117
4.212000	0.047802
4.213000	0.061612
4.214000	0.059639
4.215000	0.061612
4.216000	0.067859
4.217000	0.075422
4.218000	0.077066
4.219000	0.076737
4.220000	0.080025
4.221000	0.080683
4.222000	0.071476
4.223000	0.077723
4.224000	0.084300
4.225000	0.062927
4.226000	0.049117
4.227000	0.041554
4.228000	0.026100
4.229000	0.016564
4.230000	0.022154
4.231000	0.033663
4.232000	0.033663
4.233000	0.037937
4.234000	0.047144
4.235000	0.068188
4.236000	0.079696
4.237000	0.088903
4.238000	0.084628
4.239000	0.084628
4.240000	0.093506
4.241000	0.088574
4.242000	0.081340
4.243000	0.081998
4.244000	0.082327
4.245000	0.080354
4.246000	0.094493
4.247000	0.090547
4.248000	0.081669
4.249000	0.061612
4.250000	0.069832
4.251000	0.071805
4.252000	0.077723
4.253000	0.087917
4.254000	0.092849
4.255000	0.105672
4.256000	0.125072
4.257000	0.137896
4.258000	0.142499
4.259000	0.142499
4.260000	0.132635
4.261000	0.122442
4.262000	0.110933
4.263000	0.110604
4.264000	0.102055
4.265000	0.100083
4.266000	0.099425
4.267000	0.096794
4.268000	0.088574
4.269000	0.081011
4.270000	0.080025
4.271000	0.080025
4.272000	0.082327
4.273000	0.077723
4.274000	0.081340
4.275000	0.072791
4.276000	0.074106
4.277000	0.075750
4.278000	0.073449
4.279000	0.069174
4.280000	0.058981
4.281000	0.052076
4.282000	0.047473
4.283000	0.040897
4.284000	0.034649
4.285000	0.023141
4.286000	0.010975
4.287000	-0.005466
4.288000	-0.010727
4.289000	-0.011713
4.290000	-0.008425
4.291000	0.008673
4.292000	0.027744
4.293000	0.051090
4.294000	0.067859
4.295000	0.087588
4.296000	0.108632
4.297000	0.122771
4.298000	0.129676
4.299000	0.140526
4.300000	0.135594
4.301000	0.126387
4.302000	0.130333
4.303000	0.131320
4.304000	0.133292
4.305000	0.132635
4.306000	0.136581
4.307000	0.128031
4.308000	0.126716
4.309000	0.126387
4.310000	0.114550
4.311000	0.125730
4.312000	0.120469
4.313000	0.120469
4.314000	0.120798
4.315000	0.137896
4.316000	0.156309
4.317000	0.163543
4.318000	0.169462
4.319000	0.155323
4.320000	0.155652
4.321000	0.148418
4.322000	0.139211
4.323000	0.150719
4.324000	0.138553
4.325000	0.128689
4.326000	0.120798
4.327000	0.128689
4.328000	0.146445
4.329000	0.150391
4.330000	0.144801
4.331000	0.137567
4.332000	0.131977
4.333000	0.116194
4.334000	0.120469
4.335000	0.130662
4.336000	0.128689
4.337000	0.144801
4.338000	0.148747
4.339000	0.157953
4.340000	0.157624
4.341000	0.155980
4.342000	0.153350
4.343000	0.150062
4.344000	0.151048
4.345000	0.133950
4.346000	0.120469
4.347000	0.113564
4.348000	0.106988
4.349000	0.106659
4.350000	0.116852
4.351000	0.121455
4.352000	0.120469
4.353000	0.123099
4.354000	0.130662
4.355000	0.136909
4.356000	0.153350
4.357000	0.153021
4.358000	0.160255
4.359000	0.161899
4.360000	0.165845
4.361000	0.165845
4.362000	0.157953
4.363000	0.147760
4.364000	0.141513
4.365000	0.135594
4.366000	0.127374
4.367000	0.121126
4.368000	0.120469
4.369000	0.109618
4.370000	0.108632
4.371000	0.104028
4.372000	0.113564
4.373000	0.111591
4.374000	0.117838
4.375000	0.130004
4.376000	0.134279
4.377000	0.133950
4.378000	0.142170
4.379000	0.140526
4.380000	0.145787
4.381000	0.145787
4.382000	0.150391
4.383000	0.142170
4.384000	0.136581
4.385000	0.117510
4.386000	0.110933
4.387000	0.116852
4.388000	0.117181
4.389000	0.122442
4.390000	0.122442
4.391000	0.129676
4.392000	0.129018
4.393000	0.142170
4.394000	0.132964
4.395000	0.127703
4.396000	0.128360
4.397000	0.137567
4.398000	0.136909
4.399000	0.154336
4.400000	0.156309
4.401000	0.149075
4.402000	0.151706
4.403000	0.148747
4.404000	0.151377
4.405000	0.146116
4.406000	0.134279
4.407000	0.122113
4.408000	0.121784
4.409000	0.111262
4.410000	0.113564
4.411000	0.112577
4.412000	0.114221
4.413000	0.108632
4.414000	0.110604
4.415000	0.128031
4.416000	0.132964
4.417000	0.147431
4.418000	0.143486
4.419000	0.149404
4.420000	0.154008
4.421000	0.151377
4.422000	0.142828
4.423000	0.136252
4.424000	0.129676
4.425000	0.121784
4.426000	0.113564
4.427000	0.102055
4.428000	0.100083
4.429000	0.095808
4.430000	0.099096
4.431000	0.104686
4.432000	0.106659
4.433000	0.108960
4.434000	0.100411
4.435000	0.114221
4.436000	0.119482
4.437000	0.129347
4.438000	0.131320
4.439000	0.128689
4.440000	0.135923
4.441000	0.142828
4.442000	0.142170
4.443000	0.123099
4.444000	0.116194
4.445000	0.113893
4.446000	0.106988
4.447000	0.108303
4.448000	0.113564
4.449000	0.113893
4.450000	0.114550
4.451000	0.109947
4.452000	0.108303
4.453000	0.097123
4.454000	0.097452
4.455000	0.090547
4.456000	0.089889
4.457000	0.107645
4.458000	0.122771
4.459000	0.133621
4.460000	0.147103
4.461000	0.149733
4.462000	0.152692
4.463000	0.146774
4.464000	0.141184
4.465000	0.129018
4.466000	0.117181
4.467000	0.104357
4.468000	0.098767
4.469000	0.102384
4.470000	0.097452
4.471000	0.103371
4.472000	0.100740
4.473000	0.101727
4.474000	0.109618
4.475000	0.105672
4.476000	0.101069
4.477000	0.103042
4.478000	0.110276
4.479000	0.110933
4.480000	0.107316
4.481000	0.107645
4.482000	0.112906
4.483000	0.116194
4.484000	0.118167
4.485000	0.122442
4.486000	0.124086
4.487000	0.119154
4.488000	0.113235
4.489000	0.106330
4.490000	0.105344
4.491000	0.107316
4.492000	0.105015
4.493000	0.111262
4.494000	0.111591
4.495000	0.119154
4.496000	0.124086
4.497000	0.134937
4.498000	0.140526
4.499000	0.140197
4.500000	0.135265
4.501000	0.131648
4.502000	0.129347
4.503000	0.122771
4.504000	0.115537
4.505000	0.104686
4.506000	0.102055
4.507000	0.105672
4.508000	0.105015
4.509000	0.099754
4.510000	0.089561
4.511000	0.090547
4.512000	0.093835
4.513000	0.089232
4.514000	0.095479
4.515000	0.088245
4.516000	0.084300
4.517000	0.085286
4.518000	0.086930
4.519000	0.092520
4.520000	0.100083
4.521000	0.095150
4.522000	0.101398
4.523000	0.107316
4.524000	0.101069
4.525000	0.086272
4.526000	0.077066
4.527000	0.068517
4.528000	0.055693
4.529000	0.052076
4.530000	0.050432
4.531000	0.045500
4.532000	0.044513
4.533000	0.044185
4.534000	0.048459
4.535000	0.056679
4.536000	0.066215
4.537000	0.072134
4.538000	0.078052
4.539000	0.075422
4.540000	0.063913
4.541000	0.057666
4.542000	0.061940
4.543000	0.049774
4.544000	0.045171
4.545000	0.039910
4.546000	0.037937
4.547000	0.035636
4.548000	0.034649
4.549000	0.027744
4.550000	0.023470
4.551000	0.022154
4.552000	0.023141
4.553000	0.020510
4.554000	0.028073
4.555000	0.031361
4.556000	0.040568
4.557000	0.038266
4.558000	0.045500
4.559000	0.051418
4.560000	0.043527
4.561000	0.039581
4.562000	0.033334
4.563000	0.030375
4.564000	0.020839
4.565000	0.015907
4.566000	0.004398
4.567000	-0.021578
4.568000	-0.037032
4.569000	-0.026839
4.570000	-0.023222
4.571000	-0.022564
4.572000	-0.011056
4.573000	0.006371
4.574000	0.019524
4.575000	0.033005
4.576000	0.050761
4.577000	0.064900
4.578000	0.055364
4.579000	0.045500
4.580000	0.047144
4.581000	0.036622
4.582000	0.032019
4.583000	0.027086
4.584000	0.032019
4.585000	0.028073
4.586000	0.031032
4.587000	0.023141
4.588000	0.016893
4.589000	0.009659
4.590000	0.004398
4.591000	0.000124
4.592000	-0.000863
4.593000	0.007029
4.594000	0.019853
4.595000	0.032019
4.596000	0.039252
4.597000	0.054707
4.598000	0.075750
4.599000	0.080025
4.600000	0.093506
4.601000	0.083313
4.602000	0.083642
4.603000	0.072462
4.604000	0.070161
4.605000	0.061940
4.606000	0.048788
4.607000	0.042212
4.608000	0.041554
4.609000	0.046815
4.610000	0.039581
4.611000	0.037280
4.612000	0.041554
4.613000	0.051747
4.614000	0.057008
4.615000	0.056022
4.616000	0.053063
4.617000	0.052405
4.618000	0.057008
4.619000	0.053720
4.620000	0.063256
4.621000	0.054049
4.622000	0.052076
4.623000	0.052734
4.624000	0.039910
4.625000	0.033005
4.626000	0.039910
4.627000	0.031690
4.628000	0.031032
4.629000	0.028730
4.630000	0.029717
4.631000	0.036622
4.632000	0.040568
4.633000	0.043527
4.634000	0.047473
4.635000	0.043198
4.636000	0.048130
4.637000	0.054378
4.638000	0.051090
4.639000	0.046157
4.640000	0.050103
4.641000	0.049774
4.642000	0.051747
4.643000	0.050103
4.644000	0.050761
4.645000	0.047144
4.646000	0.035964
4.647000	0.031361
4.648000	0.030375
4.649000	0.024785
4.650000	0.022812
4.651000	0.028402
4.652000	0.033334
4.653000	0.044842
4.654000	0.045829
4.655000	0.055693
4.656000	0.071147
4.657000	0.066215
4.658000	0.069503
4.659000	0.073449
4.660000	0.072791
4.661000	0.065557
4.662000	0.063256
4.663000	0.060954
4.664000	0.056351
4.665000	0.046157
4.666000	0.029388
4.667000	0.021825
4.668000	0.023470
4.669000	0.029059
4.670000	0.027744
4.671000	0.025771
4.672000	0.022812
4.673000	0.028073
4.674000	0.036951
4.675000	0.043527
4.676000	0.036293
4.677000	0.045171
4.678000	0.044842
4.679000	0.053063
4.680000	0.056351
4.681000	0.052734
4.682000	0.049774
4.683000	0.052076
4.684000	0.043856
4.685000	0.036622
4.686000	0.029388
4.687000	0.029388
4.688000	0.024785
4.689000	0.023141
4.690000	0.028402
4.691000	0.033991
4.692000	0.038924
4.693000	0.038924
4.694000	0.038266
4.695000	0.041883
4.696000	0.053720
4.697000	0.060296
4.698000	0.053391
4.699000	0.056679
4.700000	0.053063
4.701000	0.058324
4.702000	0.053063
4.703000	0.050103
4.704000	0.055693
4.705000	0.037608
4.706000	0.041883
4.707000	0.037937
4.708000	0.039252
4.709000	0.036622
4.710000	0.038595
4.711000	0.039910
4.712000	0.045500
4.713000	0.051418
4.714000	0.048130
4.715000	0.049446
4.716000	0.057666
4.717000	0.061283
4.718000	0.064571
4.719000	0.067530
4.720000	0.071476
4.721000	0.070818
4.722000	0.065557
4.723000	0.065557
4.724000	0.059968
4.725000	0.050432
4.726000	0.044842
4.727000	0.043856
4.728000	0.046486
4.729000	0.052734
4.730000	0.049774
4.731000	0.056679
4.732000	0.064242
4.733000	0.063913
4.734000	0.064900
4.735000	0.070818
4.736000	0.059310
4.737000	0.066215
4.738000	0.059639
4.739000	0.060954
4.740000	0.057666
4.741000	0.063584
4.742000	0.056022
4.743000	0.050103
4.744000	0.042212
4.745000	0.040239
4.746000	0.034978
4.747000	0.026100
4.748000	0.025771
4.749000	0.030703
4.750000	0.033663
4.751000	0.042541
4.752000	0.046486
4.753000	0.061612
4.754000	0.066873
4.755000	0.070818
4.756000	0.074435
4.757000	0.080683
4.758000	0.073120
4.759000	0.073120
4.760000	0.076737
4.761000	0.081011
4.762000	0.084300
4.763000	0.088574
4.764000	0.086272
4.765000	0.080025
4.766000	0.068845
4.767000	0.071805
4.768000	0.060954
4.769000	0.052405
4.770000	0.053720
4.771000	0.052076
4.772000	0.048788
4.773000	0.071147
4.774000	0.067201
4.775000	0.078381
4.776000	0.079039
4.777000	0.091205
4.778000	0.090547
4.779000	0.082327
4.780000	0.087588
4.781000	0.077723
4.782000	0.079367
4.783000	0.073449
4.784000	0.064571
4.785000	0.065229
4.786000	0.053720
4.787000	0.046486
4.788000	0.039581
4.789000	0.045171
4.790000	0.039581
4.791000	0.047144
4.792000	0.045171
4.793000	0.059310
4.794000	0.061612
4.795000	0.075422
4.796000	0.079367
4.797000	0.082656
4.798000	0.083313
4.799000	0.081669
4.800000	0.086930
4.801000	0.080354
4.802000	0.075093
4.803000	0.060954
4.804000	0.053720
4.805000	0.054707
4.806000	0.056679
4.807000	0.056022
4.808000	0.062927
4.809000	0.057666
4.810000	0.053720
4.811000	0.057008
4.812000	0.063913
4.813000	0.072462
4.814000	0.070161
4.815000	0.066544
4.816000	0.071147
4.817000	0.073449
4.818000	0.076737
4.819000	0.079039
4.820000	0.077723
4.821000	0.065557
4.822000	0.068845
4.823000	0.063584
4.824000	0.071147
4.825000	0.063913
4.826000	0.067859
4.827000	0.059968
4.828000	0.062269
4.829000	0.061940
4.830000	0.067859
4.831000	0.057337
4.832000	0.053720
4.833000	0.057666
4.834000	0.073449
4.835000	0.074106
4.836000	0.078381
4.837000	0.071805
4.838000	0.073778
4.839000	0.083971
4.840000	0.088574
4.841000	0.087917
4.842000	0.084957
4.843000	0.080025
4.844000	0.072134
4.845000	0.061283
4.846000	0.049446
4.847000	0.051418
4.848000	0.052405
4.849000	0.057995
4.850000	0.058652
4.851000	0.066873
4.852000	0.069832
4.853000	0.076737
4.854000	0.083642
4.855000	0.087917
4.856000	0.100083
4.857000	0.101398
4.858000	0.100083
4.859000	0.093835
4.860000	0.095808
4.861000	0.095150
4.862000	0.092191
4.863000	0.089232
4.864000	0.086272
4.865000	0.075093
4.866000	0.064571
4.867000	0.064242
4.868000	0.075093
4.869000	0.072791
4.870000	0.071805
4.871000	0.071147
4.872000	0.074764
4.873000	0.072134
4.874000	0.086930
4.875000	0.084957
4.876000	0.088574
4.877000	0.091533
4.878000	0.093835
4.879000	0.099096
4.880000	0.097781
4.881000	0.098438
4.882000	0.102713
4.883000	0.101398
4.884000	0.103699
4.885000	0.084957
4.886000	0.075093
4.887000	0.065229
4.888000	0.070490
4.889000	0.065557
4.890000	0.056351
4.891000	0.059968
4.892000	0.059310
4.893000	0.060296
4.894000	0.072791
4.895000	0.089889
4.896000	0.087588
4.897000	0.097452
4.898000	0.091533
4.899000	0.093506
4.900000	0.101727
4.901000	0.102384
4.902000	0.104357
4.903000	0.094822
4.904000	0.091862
4.905000	0.088574
4.906000	0.088574
4.907000	0.082984
4.908000	0.068517
4.909000	0.058324
4.910000	0.059968
4.911000	0.061940
4.912000	0.070161
4.913000	0.073120
4.914000	0.075750
4.915000	0.079696
4.916000	0.079696
4.917000	0.091862
4.918000	0.097781
4.919000	0.097123
4.920000	0.084957
4.921000	0.082984
4.922000	0.091533
4.923000	0.085615
4.924000	0.081011
4.925000	0.073778
4.926000	0.061283
4.927000	0.063584
4.928000	0.065229
4.929000	0.069503
4.930000	0.061283
4.931000	0.056679
4.932000	0.052405
4.933000	0.048459
4.934000	0.052076
4.935000	0.058981
4.936000	0.058652
4.937000	0.061283
4.938000	0.058652
4.939000	0.051090
4.940000	0.047473
4.941000	0.059310
4.942000	0.071805
4.943000	0.076737
4.944000	0.084957
4.945000	0.073449
4.946000	0.079367
4.947000	0.080683
4.948000	0.076737
4.949000	0.068188
4.950000	0.078381
4.951000	0.075093
4.952000	0.078381
4.953000	0.079696
4.954000	0.081669
4.955000	0.091533
4.956000	0.090218
4.957000	0.097123
4.958000	0.090547
4.959000	0.092191
4.960000	0.095808
4.961000	0.094822
4.962000	0.094164
4.963000	0.086930
4.964000	0.081340
4.965000	0.074106
4.966000	0.075422
4.967000	0.076737
4.968000	0.068188
4.969000	0.061283
4.970000	0.058652
4.971000	0.062927
4.972000	0.062598
4.973000	0.072462
4.974000	0.078710
4.975000	0.082656
4.976000	0.094822
4.977000	0.100083
4.978000	0.098767
4.979000	0.100740
4.980000	0.094493
4.981000	0.091533
4.982000	0.098767
4.983000	0.085944
4.984000	0.087259
4.985000	0.074764
4.986000	0.069174
4.987000	0.054378
4.988000	0.057995
4.989000	0.055693
4.990000	0.055693
4.991000	0.055693
4.992000	0.056679
4.993000	0.058981
4.994000	0.069503
4.995000	0.082656
4.996000	0.081340
4.997000	0.086272
4.998000	0.091205
4.999000	0.091205
5.000000	0.091862
5.001000	0.099096
5.002000	0.097123
5.003000	0.087588
5.004000	0.078052
5.005000	0.087259
5.006000	0.079696
5.007000	0.076408
5.008000	0.079367
5.009000	0.075093
5.010000	0.077395
5.011000	0.080025
5.012000	0.075422
5.013000	0.075750
5.014000	0.075093
5.015000	0.075422
5.016000	0.087917
5.017000	0.091533
5.018000	0.093835
5.019000	0.095479
5.020000	0.106001
5.021000	0.106659
5.022000	0.107974
5.023000	0.102384
5.024000	0.105672
5.025000	0.098767
5.026000	0.093835
5.027000	0.085615
5.028000	0.089889
5.029000	0.087588
5.030000	0.082327
5.031000	0.081340
5.032000	0.074764
5.033000	0.078710
5.034000	0.076079
5.035000	0.073120
5.036000	0.080354
5.037000	0.083971
5.038000	0.095479
5.039000	0.103699
5.040000	0.104028
5.041000	0.099425
5.042000	0.104686
5.043000	0.102713
5.044000	0.100411
5.045000	0.090876
5.046000	0.081340
5.047000	0.081011
5.048000	0.082656
5.049000	0.085286
5.050000	0.101398
5.051000	0.102055
5.052000	0.100083
5.053000	0.108960
5.054000	0.104028
5.055000	0.103371
5.056000	0.108632
5.057000	0.107974
5.058000	0.107645
5.059000	0.103042
5.060000	0.105015
5.061000	0.095479
5.062000	0.100411
5.063000	0.100083
5.064000	0.096137
5.065000	0.102384
5.066000	0.094164
5.067000	0.104686
5.068000	0.114221
5.069000	0.100083
5.070000	0.100083
5.071000	0.096794
5.072000	0.097781
5.073000	0.099754
5.074000	0.104686
5.075000	0.110933
5.076000	0.108632
5.077000	0.119154
5.078000	0.125730
5.079000	0.128360
5.080000	0.122771
5.081000	0.117838
5.082000	0.115208
5.083000	0.109618
5.084000	0.101069
5.085000	0.099754
5.086000	0.078381
5.087000	0.065229
5.088000	0.072791
5.089000	0.075750
5.090000	0.078710
5.091000	0.079039
5.092000	0.072134
5.093000	0.077395
5.094000	0.083642
5.095000	0.092849
5.096000	0.098438
5.097000	0.106001
5.098000	0.100740
5.099000	0.095150
5.100000	0.090547
5.101000	0.082656
5.102000	0.079367
5.103000	0.076737
5.104000	0.069174
5.105000	0.063913
5.106000	0.064242
5.107000	0.070818
5.108000	0.077395
5.109000	0.074106
5.110000	0.075093
5.111000	0.068517
5.112000	0.056351
5.113000	0.064571
5.114000	0.074106
5.115000	0.076737
5.116000	0.082984
5.117000	0.087588
5.118000	0.096794
5.119000	0.095479
5.120000	0.104028
5.121000	0.110604
5.122000	0.111262
5.123000	0.105015
5.124000	0.099425
5.125000	0.082984
5.126000	0.077066
5.127000	0.073449
5.128000	0.073449
5.129000	0.071147
5.130000	0.065557
5.131000	0.058652
5.132000	0.072134
5.133000	0.078710
5.134000	0.091205
5.135000	0.099754
5.136000	0.096137
5.137000	0.104686
5.138000	0.110933
5.139000	0.110933
5.140000	0.107316
5.141000	0.107974
5.142000	0.107645
5.143000	0.101727
5.144000	0.108960
5.145000	0.104357
5.146000	0.099754
5.147000	0.088903
5.148000	0.087259
5.149000	0.092849
5.150000	0.092191
5.151000	0.083642
5.152000	0.091862
5.153000	0.093835
5.154000	0.102384
5.155000	0.111262
5.156000	0.112249
5.157000	0.115865
5.158000	0.114221
5.159000	0.109618
5.160000	0.112906
5.161000	0.113893
5.162000	0.107645
5.163000	0.098767
5.164000	0.087588
5.165000	0.076737
5.166000	0.076408
5.167000	0.078052
5.168000	0.067201
5.169000	0.062269
5.170000	0.060625
5.171000	0.060625
5.172000	0.056679
5.173000	0.061283
5.174000	0.064571
5.175000	0.066544
5.176000	0.088903
5.177000	0.098110
5.178000	0.103371
5.179000	0.108303
5.180000	0.104357
5.181000	0.097781
5.182000	0.093506
5.183000	0.092191
5.184000	0.081669
5.185000	0.064242
5.186000	0.043856
5.187000	0.031032
5.188000	0.023470
5.189000	0.033005
5.190000	0.039252
5.191000	0.050761
5.192000	0.062927
5.193000	0.073778
5.194000	0.084300
5.195000	0.098767
5.196000	0.106988
5.197000	0.097781
5.198000	0.101727
5.199000	0.098110
5.200000	0.099425
5.201000	0.101069
5.202000	0.098438
5.203000	0.094493
5.204000	0.084957
5.205000	0.082984
5.206000	0.073778
5.207000	0.071805
5.208000	0.073778
5.209000	0.056022
5.210000	0.055693
5.211000	0.067859
5.212000	0.068517
5.213000	0.072462
5.214000	0.078381
5.215000	0.082327
5.216000	0.084957
5.217000	0.081340
5.218000	0.078381
5.219000	0.072462
5.220000	0.071805
5.221000	0.069832
5.222000	0.067530
5.223000	0.057995
5.224000	0.043198
5.225000	0.042212
5.226000	0.031690
5.227000	0.018537
5.228000	0.015907
5.229000	0.009002
5.230000	-0.000534
5.231000	-0.004151
5.232000	-0.010069
5.233000	-0.018947
5.234000	-0.021578
5.235000	-0.023222
5.236000	-0.024537
5.237000	-0.016974
5.238000	-0.005137
5.239000	0.011632
5.240000	0.010646
5.241000	0.021168
5.242000	0.038924
5.243000	0.052734
5.244000	0.067859
5.245000	0.075422
5.246000	0.072134
5.247000	0.057008
5.248000	0.065886
5.249000	0.079696
5.250000	0.077395
5.251000	0.068845
5.252000	0.071476
5.253000	0.078710
5.254000	0.082327
5.255000	0.104028
5.256000	0.115537
5.257000	0.119154
5.258000	0.117510
5.259000	0.124415
5.260000	0.123757
5.261000	0.125401
5.262000	0.127374
5.263000	0.120469
5.264000	0.113235
5.265000	0.101727
5.266000	0.082327
5.267000	0.074106
5.268000	0.072462
5.269000	0.068188
5.270000	0.068517
5.271000	0.072134
5.272000	0.071805
5.273000	0.076079
5.274000	0.067530
5.275000	0.075093
5.276000	0.068845
5.277000	0.073449
5.278000	0.087259
5.279000	0.090876
5.280000	0.096466
5.281000	0.091205
5.282000	0.094164
5.283000	0.091205
5.284000	0.089561
5.285000	0.083642
5.286000	0.075750
5.287000	0.067859
5.288000	0.055035
5.289000	0.049117
5.290000	0.055035
5.291000	0.056351
5.292000	0.051090
5.293000	0.069174
5.294000	0.071805
5.295000	0.069832
5.296000	0.077723
5.297000	0.085944
5.298000	0.089889
5.299000	0.093177
5.300000	0.088574
5.301000	0.084957
5.302000	0.075422
5.303000	0.090218
5.304000	0.086272
5.305000	0.082656
5.306000	0.079696
5.307000	0.073120
5.308000	0.065557
5.309000	0.059310
5.310000	0.057337
5.311000	0.058981
5.312000	0.061612
5.313000	0.065557
5.314000	0.069503
5.315000	0.070490
5.316000	0.076079
5.317000	0.084628
5.318000	0.078381
5.319000	0.079367
5.320000	0.079696
5.321000	0.079367
5.322000	0.077723
5.323000	0.074435
5.324000	0.069174
5.325000	0.055693
5.326000	0.057008
5.327000	0.048459
5.328000	0.049117
5.329000	0.052734
5.330000	0.047144
5.331000	0.049774
5.332000	0.059968
5.333000	0.063913
5.334000	0.062269
5.335000	0.068517
5.336000	0.066215
5.337000	0.072791
5.338000	0.074106
5.339000	0.075422
5.340000	0.079367
5.341000	0.077066
5.342000	0.083971
5.343000	0.077395
5.344000	0.073120
5.345000	0.065229
5.346000	0.058981
5.347000	0.052076
5.348000	0.050432
5.349000	0.047473
5.350000	0.043198
5.351000	0.048788
5.352000	0.057008
5.353000	0.064571
5.354000	0.064242
5.355000	0.068188
5.356000	0.082327
5.357000	0.081340
5.358000	0.084300
5.359000	0.089232
5.360000	0.093506
5.361000	0.083313
5.362000	0.081011
5.363000	0.075422
5.364000	0.072134
5.365000	0.065886
5.366000	0.062269
5.367000	0.060296
5.368000	0.057666
5.369000	0.047473
5.370000	0.044185
5.371000	0.039252
5.372000	0.041554
5.373000	0.047802
5.374000	0.049117
5.375000	0.056679
5.376000	0.060296
5.377000	0.068517
5.378000	0.078710
5.379000	0.084300
5.380000	0.089232
5.381000	0.097781
5.382000	0.094822
5.383000	0.090547
5.384000	0.085286
5.385000	0.080354
5.386000	0.081669
5.387000	0.074764
5.388000	0.072462
5.389000	0.077066
5.390000	0.080683
5.391000	0.096466
5.392000	0.101727
5.393000	0.105015
5.394000	0.110276
5.395000	0.104357
5.396000	0.099425
5.397000	0.100083
5.398000	0.099425
5.399000	0.110604
5.400000	0.109947
5.401000	0.106659
5.402000	0.104686
5.403000	0.094164
5.404000	0.088245
5.405000	0.088903
5.406000	0.093506
5.407000	0.091533
5.408000	0.104028
5.409000	0.102384
5.410000	0.113564
5.411000	0.120798
5.412000	0.120140
5.413000	0.124415
5.414000	0.111591
5.415000	0.109618
5.416000	0.110276
5.417000	0.115208
5.418000	0.118496
5.419000	0.106988
5.420000	0.105344
5.421000	0.110604
5.422000	0.120798
5.423000	0.118496
5.424000	0.116194
5.425000	0.112577
5.426000	0.104686
5.427000	0.106988
5.428000	0.106659
5.429000	0.105344
5.430000	0.104357
5.431000	0.100740
5.432000	0.104357
5.433000	0.110933
5.434000	0.113235
5.435000	0.115537
5.436000	0.112249
5.437000	0.121126
5.438000	0.124086
5.439000	0.130991
5.440000	0.128031
5.441000	0.126059
5.442000	0.121455
5.443000	0.115537
5.444000	0.115537
5.445000	0.107974
5.446000	0.104028
5.447000	0.095479
5.448000	0.092849
5.449000	0.092849
5.450000	0.090547
5.451000	0.096137
5.452000	0.095479
5.453000	0.102384
5.454000	0.099096
5.455000	0.110276
5.456000	0.112249
5.457000	0.119154
5.458000	0.125072
5.459000	0.136581
5.460000	0.130004
5.461000	0.128689
5.462000	0.111920
5.463000	0.104686
5.464000	0.093177
5.465000	0.079367
5.466000	0.074764
5.467000	0.063913
5.468000	0.051418
5.469000	0.046815
5.470000	0.055364
5.471000	0.058324
5.472000	0.063256
5.473000	0.063584
5.474000	0.058652
5.475000	0.069503
5.476000	0.069832
5.477000	0.072791
5.478000	0.071805
5.479000	0.062598
5.480000	0.064242
5.481000	0.073120
5.482000	0.069174
5.483000	0.073778
5.484000	0.061612
5.485000	0.060954
5.486000	0.050761
5.487000	0.054707
5.488000	0.058324
5.489000	0.051090
5.490000	0.066215
5.491000	0.063584
5.492000	0.057995
5.493000	0.062927
5.494000	0.064242
5.495000	0.064571
5.496000	0.067859
5.497000	0.069174
5.498000	0.068517
5.499000	0.075750
5.500000	0.071147
5.501000	0.064242
5.502000	0.059639
5.503000	0.058652
5.504000	0.055693
5.505000	0.048788
5.506000	0.043527
5.507000	0.032347
5.508000	0.030046
5.509000	0.029388
5.510000	0.029388
5.511000	0.035307
5.512000	0.033663
5.513000	0.044185
5.514000	0.033334
5.515000	0.031690
5.516000	0.038595
5.517000	0.046157
5.518000	0.046815
5.519000	0.054707
5.520000	0.056351
5.521000	0.052076
5.522000	0.057666
5.523000	0.058981
5.524000	0.063913
5.525000	0.058981
5.526000	0.059310
5.527000	0.058652
5.528000	0.064571
5.529000	0.066215
5.530000	0.069503
5.531000	0.082984
5.532000	0.082984
5.533000	0.089561
5.534000	0.087588
5.535000	0.098110
5.536000	0.102384
5.537000	0.102713
5.538000	0.100411
5.539000	0.099425
5.540000	0.095479
5.541000	0.096466
5.542000	0.090876
5.543000	0.088574
5.544000	0.085286
5.545000	0.084628
5.546000	0.079367
5.547000	0.065886
5.548000	0.065886
5.549000	0.069832
5.550000	0.067201
5.551000	0.067859
5.552000	0.059310
5.553000	0.064242
5.554000	0.073778
5.555000	0.082656
5.556000	0.081011
5.557000	0.088903
5.558000	0.083642
5.559000	0.081998
5.560000	0.082984
5.561000	0.082327
5.562000	0.076737
5.563000	0.053720
5.564000	0.047473
5.565000	0.049446
5.566000	0.054049
5.567000	0.057008
5.568000	0.056351
5.569000	0.059968
5.570000	0.058652
5.571000	0.067201
5.572000	0.082656
5.573000	0.090876
5.574000	0.069174
5.575000	0.056679
5.576000	0.068517
5.577000	0.070490
5.578000	0.074435
5.579000	0.085944
5.580000	0.085615
5.581000	0.069832
5.582000	0.088574
5.583000	0.089561
5.584000	0.098438
5.585000	0.091205
5.586000	0.080683
5.587000	0.079696
5.588000	0.075093
5.589000	0.072791
5.590000	0.081340
5.591000	0.075093
5.592000	0.079367
5.593000	0.079696
5.594000	0.091533
5.595000	0.096794
5.596000	0.099425
5.597000	0.097781
5.598000	0.105344
5.599000	0.115865
5.600000	0.111262
5.601000	0.102713
5.602000	0.104028
5.603000	0.099096
5.604000	0.094164
5.605000	0.084628
5.606000	0.085615
5.607000	0.073778
5.608000	0.069503
5.609000	0.061940
5.610000	0.068517
5.611000	0.071476
5.612000	0.079367
5.613000	0.079696
5.614000	0.078381
5.615000	0.082984
5.616000	0.093177
5.617000	0.094164
5.618000	0.084628
5.619000	0.090876
5.620000	0.090547
5.621000	0.090547
5.622000	0.086930
5.623000	0.081340
5.624000	0.077395
5.625000	0.070161
5.626000	0.059968
5.627000	0.059639
5.628000	0.055693
5.629000	0.061283
5.630000	0.055693
5.631000	0.060296
5.632000	0.062927
5.633000	0.067201
5.634000	0.065886
5.635000	0.070818
5.636000	0.073120
5.637000	0.078710
5.638000	0.082656
5.639000	0.092849
5.640000	0.092520
5.641000	0.087259
5.642000	0.087917
5.643000	0.081669
5.644000	0.081998
5.645000	0.080025
5.646000	0.071476
5.647000	0.055364
5.648000	0.049117
5.649000	0.050761
5.650000	0.056022
5.651000	0.059639
5.652000	0.054707
5.653000	0.056022
5.654000	0.060625
5.655000	0.069832
5.656000	0.094164
5.657000	0.099425
5.658000	0.100083
5.659000	0.094493
5.660000	0.075750
5.661000	0.079367
5.662000	0.080683
5.663000	0.066215
5.664000	0.066544
5.665000	0.058981
5.666000	0.056022
5.667000	0.055693
5.668000	0.056351
5.669000	0.062927
5.670000	0.059310
5.671000	0.062598
5.672000	0.070490
5.673000	0.069832
5.674000	0.078710
5.675000	0.079039
5.676000	0.080025
5.677000	0.085615
5.678000	0.092191
5.679000	0.084957
5.680000	0.081998
5.681000	0.068188
5.682000	0.065557
5.683000	0.062269
5.684000	0.060625
5.685000	0.066544
5.686000	0.057008
5.687000	0.061940
5.688000	0.069832
5.689000	0.069832
5.690000	0.074764
5.691000	0.069832
5.692000	0.072134
5.693000	0.080354
5.694000	0.088245
5.695000	0.096466
5.696000	0.089232
5.697000	0.081998
5.698000	0.082327
5.699000	0.079696
5.700000	0.085615
5.701000	0.088574
5.702000	0.075093
5.703000	0.077723
5.704000	0.084957
5.705000	0.105672
5.706000	0.111920
5.707000	0.102055
5.708000	0.091533
5.709000	0.081998
5.710000	0.069503
5.711000	0.081340
5.712000	0.078052
5.713000	0.080025
5.714000	0.085615
5.715000	0.088574
5.716000	0.100083
5.717000	0.097452
5.718000	0.094164
5.719000	0.097781
5.720000	0.095479
5.721000	0.102713
5.722000	0.106001
5.723000	0.090876
5.724000	0.086272
5.725000	0.079696
5.726000	0.081011
5.727000	0.067859
5.728000	0.069832
5.729000	0.059968
5.730000	0.056679
5.731000	0.060954
5.732000	0.065229
5.733000	0.071805
5.734000	0.075422
5.735000	0.080025
5.736000	0.090547
5.737000	0.104686
5.738000	0.103371
5.739000	0.102384
5.740000	0.097123
5.741000	0.100411
5.742000	0.094822
5.743000	0.096137
5.744000	0.091205
5.745000	0.075422
5.746000	0.067530
5.747000	0.066215
5.748000	0.056679
5.749000	0.056679
5.750000	0.056351
5.751000	0.062927
5.752000	0.057008
5.753000	0.059310
5.754000	0.063256
5.755000	0.074106
5.756000	0.085286
5.757000	0.086601
5.758000	0.093835
5.759000	0.099425
5.760000	0.103371
5.761000	0.100740
5.762000	0.096137
5.763000	0.089232
5.764000	0.086601
5.765000	0.080354
5.766000	0.075750
5.767000	0.072462
5.768000	0.058981
5.769000	0.050103
5.770000	0.052076
5.771000	0.063256
5.772000	0.067859
5.773000	0.065886
5.774000	0.073449
5.775000	0.076408
5.776000	0.084957
5.777000	0.090547
5.778000	0.086601
5.779000	0.092520
5.780000	0.082327
5.781000	0.069503
5.782000	0.059639
5.783000	0.052405
5.784000	0.047144
5.785000	0.048130
5.786000	0.047144
5.787000	0.042541
5.788000	0.056351
5.789000	0.060296
5.790000	0.084300
5.791000	0.097781
5.792000	0.097452
5.793000	0.106988
5.794000	0.106001
5.795000	0.105672
5.796000	0.098767
5.797000	0.095808
5.798000	0.104357
5.799000	0.101398
5.800000	0.091862
5.801000	0.083971
5.802000	0.076737
5.803000	0.080683
5.804000	0.083313
5.805000	0.078052
5.806000	0.078710
5.807000	0.073120
5.808000	0.068517
5.809000	0.063256
5.810000	0.067201
5.811000	0.063913
5.812000	0.055693
5.813000	0.065886
5.814000	0.071476
5.815000	0.077395
5.816000	0.091533
5.817000	0.091533
5.818000	0.105672
5.819000	0.109618
5.820000	0.095808
5.821000	0.090218
5.822000	0.085615
5.823000	0.090547
5.824000	0.089889
5.825000	0.083971
5.826000	0.075422
5.827000	0.062927
5.828000	0.052076
5.829000	0.052076
5.830000	0.059968
5.831000	0.067530
5.832000	0.070818
5.833000	0.077066
5.834000	0.090218
5.835000	0.095479
5.836000	0.105672
5.837000	0.109618
5.838000	0.098767
5.839000	0.091862
5.840000	0.081998
5.841000	0.074106
5.842000	0.070161
5.843000	0.073778
5.844000	0.062269
5.845000	0.068845
5.846000	0.063584
5.847000	0.057995
5.848000	0.055693
5.849000	0.060296
5.850000	0.064571
5.851000	0.068188
5.852000	0.063913
5.853000	0.067201
5.854000	0.075750
5.855000	0.080683
5.856000	0.071147
5.857000	0.081011
5.858000	0.086601
5.859000	0.090876
5.860000	0.091533
5.861000	0.074106
5.862000	0.064900
5.863000	0.053391
5.864000	0.050432
5.865000	0.054378
5.866000	0.056679
5.867000	0.043856
5.868000	0.051090
5.869000	0.057337
5.870000	0.065886
5.871000	0.073778
5.872000	0.068188
5.873000	0.067859
5.874000	0.063584
5.875000	0.066215
5.876000	0.076079
5.877000	0.083313
5.878000	0.081340
5.879000	0.082327
5.880000	0.082327
5.881000	0.086930
5.882000	0.078052
5.883000	0.081998
5.884000	0.073120
5.885000	0.067859
5.886000	0.064242
5.887000	0.061940
5.888000	0.066215
5.889000	0.062927
5.890000	0.062269
5.891000	0.067201
5.892000	0.067530
5.893000	0.071147
5.894000	0.067859
5.895000	0.073120
5.896000	0.080683
5.897000	0.082656
5.898000	0.083642
5.899000	0.083642
5.900000	0.084300
5.901000	0.077066
5.902000	0.081340
5.903000	0.086272
5.904000	0.090876
5.905000	0.093835
5.906000	0.088903
5.907000	0.075750
5.908000	0.075093
5.909000	0.072791
5.910000	0.063913
5.911000	0.070818
5.912000	0.062598
5.913000	0.061612
5.914000	0.064242
5.915000	0.072462
5.916000	0.078381
5.917000	0.086272
5.918000	0.080354
5.919000	0.079696
5.920000	0.085944
5.921000	0.086930
5.922000	0.075093
5.923000	0.061940
5.924000	0.047473
5.925000	0.052405
5.926000	0.049774
5.927000	0.043527
5.928000	0.037937
5.929000	0.043856
5.930000	0.047473
5.931000	0.055035
5.932000	0.053391
5.933000	0.066873
5.934000	0.059639
5.935000	0.059639
5.936000	0.061283
5.937000	0.068517
5.938000	0.069503
5.939000	0.076408
5.940000	0.073778
5.941000	0.071147
5.942000	0.065886
5.943000	0.072791
5.944000	0.062598
5.945000	0.046815
5.946000	0.043198
5.947000	0.038924
5.948000	0.034320
5.949000	0.025114
5.950000	0.023798
5.951000	0.025442
5.952000	0.034649
5.953000	0.045500
5.954000	0.050103
5.955000	0.051090
5.956000	0.053720
5.957000	0.058981
5.958000	0.072134
5.959000	0.074764
5.960000	0.070161
5.961000	0.062927
5.962000	0.053720
5.963000	0.052734
5.964000	0.048459
5.965000	0.040568
5.966000	0.034649
5.967000	0.035636
5.968000	0.034320
5.969000	0.036622
5.970000	0.035636
5.971000	0.033991
5.972000	0.045171
5.973000	0.056351
5.974000	0.067530
5.975000	0.067530
5.976000	0.066215
5.977000	0.064900
5.978000	0.070818
5.979000	0.068517
5.980000	0.061612
5.981000	0.059639
5.982000	0.048459
5.983000	0.039252
5.984000	0.032676
5.985000	0.034320
5.986000	0.029059
5.987000	0.028073
5.988000	0.029388
5.989000	0.024456
5.990000	0.036951
5.991000	0.036622
5.992000	0.045829
5.993000	0.044842
5.994000	0.048788
5.995000	0.057337
5.996000	0.060625
5.997000	0.070490
5.998000	0.080025
5.999000	0.074435
6.000000	0.080683
6.001000	0.078052
6.002000	0.078381
6.003000	0.068845
6.004000	0.066215
6.005000	0.043856
6.006000	0.034978
6.007000	0.027415
6.008000	0.027744
6.009000	0.021825
6.010000	0.011961
6.011000	0.024127
6.012000	0.029717
6.013000	0.042541
6.014000	0.054707
6.015000	0.069832
6.016000	0.077723
6.017000	0.077066
6.018000	0.083971
6.019000	0.091205
6.020000	0.090876
6.021000	0.093506
6.022000	0.075422
6.023000	0.069832
6.024000	0.066873
6.025000	0.068845
6.026000	0.063913
6.027000	0.052405
6.028000	0.052734
6.029000	0.050432
6.030000	0.050432
6.031000	0.051090
6.032000	0.050432
6.033000	0.050432
6.034000	0.062269
6.035000	0.063584
6.036000	0.063584
6.037000	0.057008
6.038000	0.059639
6.039000	0.067530
6.040000	0.066215
6.041000	0.062269
6.042000	0.053063
6.043000	0.048130
6.044000	0.033663
6.045000	0.027744
6.046000	0.027086
6.047000	0.023141
6.048000	0.024127
6.049000	0.019853
6.050000	0.016236
6.051000	0.026758
6.052000	0.039252
6.053000	0.042212
6.054000	0.035964
6.055000	0.040239
6.056000	0.041554
6.057000	0.048459
6.058000	0.050761
6.059000	0.046486
6.060000	0.055693
6.061000	0.061283
6.062000	0.068188
6.063000	0.064571
6.064000	0.075093
6.065000	0.054049
6.066000	0.047144
6.067000	0.044842
6.068000	0.040568
6.069000	0.029717
6.070000	0.027086
6.071000	0.015907
6.072000	0.020181
6.073000	0.023141
6.074000	0.031032
6.075000	0.037608
6.076000	0.041225
6.077000	0.051418
6.078000	0.059639
6.079000	0.060296
6.080000	0.065557
6.081000	0.067201
6.082000	0.061612
6.083000	0.056679
6.084000	0.058652
6.085000	0.051418
6.086000	0.041883
6.087000	0.023798
6.088000	0.026429
6.089000	0.013605
6.090000	0.020839
6.091000	0.023798
6.092000	0.019524
6.093000	0.014592
6.094000	0.015249
6.095000	0.019195
6.096000	0.029388
6.097000	0.030046
6.098000	0.032347
6.099000	0.034649
6.100000	0.038266
6.101000	0.047802
6.102000	0.045829
6.103000	0.051418
6.104000	0.042869
6.105000	0.030703
6.106000	0.033334
6.107000	0.019853
6.108000	0.016893
6.109000	0.018537
6.110000	0.013276
6.111000	0.018537
6.112000	0.025771
6.113000	0.032019
6.114000	0.041883
6.115000	0.037937
6.116000	0.041554
6.117000	0.049117
6.118000	0.059968
6.119000	0.056679
6.120000	0.054707
6.121000	0.041883
6.122000	0.037608
6.123000	0.033991
6.124000	0.018866
6.125000	0.015249
6.126000	-0.004479
6.127000	-0.004808
6.128000	-0.000534
6.129000	0.007358
6.130000	0.009988
6.131000	0.012948
6.132000	0.017222
6.133000	0.016893
6.134000	0.039581
6.135000	0.043856
6.136000	0.051090
6.137000	0.059310
6.138000	0.065557
6.139000	0.061283
6.140000	0.055035
6.141000	0.060296
6.142000	0.057666
6.143000	0.053720
6.144000	0.048788
6.145000	0.050103
6.146000	0.044513
6.147000	0.042212
6.148000	0.039910
6.149000	0.033663
6.150000	0.037608
6.151000	0.042541
6.152000	0.033334
6.153000	0.029717
6.154000	0.035964
6.155000	0.038595
6.156000	0.051090
6.157000	0.052405
6.158000	0.052734
6.159000	0.050103
6.160000	0.051418
6.161000	0.057008
6.162000	0.064242
6.163000	0.059310
6.164000	0.050761
6.165000	0.033991
6.166000	0.039581
6.167000	0.032347
6.168000	0.033005
6.169000	0.028730
6.170000	0.030046
6.171000	0.038924
6.172000	0.042869
6.173000	0.049774
6.174000	0.050432
6.175000	0.053720
6.176000	0.059639
6.177000	0.057666
6.178000	0.061612
6.179000	0.059968
6.180000	0.066873
6.181000	0.057008
6.182000	0.048130
6.183000	0.051747
6.184000	0.044513
6.185000	0.042541
6.186000	0.037608
6.187000	0.028402
6.188000	0.022154
6.189000	0.025771
6.190000	0.030375
6.191000	0.028073
6.192000	0.039252
6.193000	0.038924
6.194000	0.046486
6.195000	0.058652
6.196000	0.063584
6.197000	0.060954
6.198000	0.068517
6.199000	0.065557
6.200000	0.060296
6.201000	0.051747
6.202000	0.058652
6.203000	0.057666
6.204000	0.046486
6.205000	0.041883
6.206000	0.043856
6.207000	0.031690
6.208000	0.038595
6.209000	0.033334
6.210000	0.037280
6.211000	0.043527
6.212000	0.056022
6.213000	0.051090
6.214000	0.052405
6.215000	0.051418
6.216000	0.054049
6.217000	0.062598
6.218000	0.074435
6.219000	0.065557
6.220000	0.057666
6.221000	0.038266
6.222000	0.043856
6.223000	0.040239
6.224000	0.040897
6.225000	0.031690
6.226000	0.018209
6.227000	0.019524
6.228000	0.021825
6.229000	0.026100
6.230000	0.016564
6.231000	0.020839
6.232000	0.030703
6.233000	0.049774
6.234000	0.067530
6.235000	0.063913
6.236000	0.073778
6.237000	0.071476
6.238000	0.063913
6.239000	0.062269
6.240000	0.059639
6.241000	0.039910
6.242000	0.023470
6.243000	0.009659
6.244000	0.009331
6.245000	0.000782
6.246000	-0.010069
6.247000	-0.015988
6.248000	-0.021249
6.249000	-0.022235
6.250000	-0.008425
