LabVIEW Measurement	
Writer_Version	2
Reader_Version	2
Separator	Tab
Decimal_Separator	.
Multi_Headings	Yes
X_Columns	One
Time_Pref	Absolute
Operator	absf624
Date	2017/04/21
Time	15:15:08.862673930034706323
***End_of_Header***	
	
Channels	1	
Samples	1000	
Date	2017/04/21	
Time	15:15:08.862673930034706323	
Y_Unit_Label	Volts	
X_Dimension	Time	
X0	0.0000000000000000E+0	
Delta_X	0.001000	
***End_of_Header***		
X_Value	Voltage	Comment
0.000000	-0.010069
0.001000	-0.013029
0.002000	-0.018947
0.003000	-0.019934
0.004000	-0.017303
0.005000	-0.005795
0.006000	-0.002835
0.007000	0.019195
0.008000	0.022154
0.009000	0.019853
0.010000	0.029717
0.011000	0.033991
0.012000	0.020839
0.013000	0.009002
0.014000	0.004398
0.015000	-0.009412
0.016000	-0.014015
0.017000	0.000782
0.018000	0.003412
0.019000	0.004727
0.020000	-0.002178
0.021000	-0.003493
0.022000	0.002097
0.023000	0.004398
0.024000	0.009988
0.025000	0.004070
0.026000	-0.007768
0.027000	0.000124
0.028000	0.008015
0.029000	0.010975
0.030000	0.001768
0.031000	-0.003822
0.032000	0.009659
0.033000	0.004070
0.034000	0.012290
0.035000	0.000782
0.036000	-0.008425
0.037000	-0.007768
0.038000	-0.010398
0.039000	-0.009412
0.040000	-0.012042
0.041000	-0.001849
0.042000	-0.002178
0.043000	-0.008754
0.044000	-0.000205
0.045000	-0.000534
0.046000	0.006371
0.047000	0.008673
0.048000	0.003083
0.049000	0.003412
0.050000	0.010646
0.051000	0.014920
0.052000	0.011303
0.053000	0.010646
0.054000	0.002426
0.055000	-0.000863
0.056000	0.001110
0.057000	-0.008425
0.058000	-0.012700
0.059000	-0.012371
0.060000	-0.007768
0.061000	-0.004151
0.062000	0.003083
0.063000	0.002426
0.064000	0.002097
0.065000	0.001768
0.066000	0.004398
0.067000	0.001110
0.068000	-0.003164
0.069000	-0.018947
0.070000	-0.019276
0.071000	-0.010398
0.072000	-0.000863
0.073000	0.017880
0.074000	0.007029
0.075000	0.015249
0.076000	0.011303
0.077000	0.009002
0.078000	0.009659
0.079000	0.004398
0.080000	-0.001849
0.081000	0.001768
0.082000	-0.001849
0.083000	-0.004808
0.084000	-0.008096
0.085000	0.013605
0.086000	-0.001520
0.087000	0.010646
0.088000	-0.000205
0.089000	0.001110
0.090000	-0.000534
0.091000	0.002097
0.092000	-0.001520
0.093000	-0.000534
0.094000	-0.002507
0.095000	-0.010727
0.096000	-0.014673
0.097000	-0.007768
0.098000	-0.009412
0.099000	-0.000205
0.100000	0.000124
0.101000	-0.001191
0.102000	-0.002835
0.103000	-0.004479
0.104000	-0.015988
0.105000	-0.013029
0.106000	-0.014344
0.107000	-0.002178
0.108000	0.006371
0.109000	-0.006452
0.110000	0.000782
0.111000	0.001110
0.112000	-0.000205
0.113000	0.015249
0.114000	0.015907
0.115000	0.017222
0.116000	0.035636
0.117000	0.021497
0.118000	0.010975
0.119000	0.017880
0.120000	0.000782
0.121000	0.003412
0.122000	0.004070
0.123000	0.005385
0.124000	0.007687
0.125000	0.005056
0.126000	0.000453
0.127000	0.006371
0.128000	0.014263
0.129000	0.002754
0.130000	-0.002507
0.131000	-0.002507
0.132000	-0.003164
0.133000	0.003412
0.134000	0.000782
0.135000	0.010975
0.136000	0.000453
0.137000	-0.000205
0.138000	-0.002835
0.139000	-0.006781
0.140000	-0.000205
0.141000	-0.013029
0.142000	-0.002835
0.143000	-0.000534
0.144000	0.004727
0.145000	0.000124
0.146000	-0.003164
0.147000	-0.009083
0.148000	-0.005137
0.149000	0.001439
0.150000	0.007029
0.151000	0.011961
0.152000	0.011303
0.153000	0.017551
0.154000	0.014592
0.155000	0.011303
0.156000	0.002754
0.157000	-0.007439
0.158000	-0.009740
0.159000	-0.005137
0.160000	-0.012371
0.161000	-0.014015
0.162000	-0.014015
0.163000	-0.005137
0.164000	-0.006452
0.165000	0.009659
0.166000	0.018866
0.167000	0.029388
0.168000	0.023798
0.169000	0.011961
0.170000	0.012948
0.171000	0.011632
0.172000	0.005385
0.173000	-0.002507
0.174000	-0.001849
0.175000	-0.006781
0.176000	-0.014673
0.177000	-0.001191
0.178000	-0.009740
0.179000	-0.004479
0.180000	-0.009412
0.181000	-0.001520
0.182000	-0.001191
0.183000	-0.005795
0.184000	-0.003164
0.185000	0.000782
0.186000	0.003741
0.187000	0.007358
0.188000	0.003083
0.189000	0.014592
0.190000	0.008344
0.191000	0.010646
0.192000	-0.002835
0.193000	0.005385
0.194000	-0.008096
0.195000	-0.001520
0.196000	0.003741
0.197000	0.002097
0.198000	-0.005466
0.199000	-0.002178
0.200000	-0.005137
0.201000	-0.009412
0.202000	-0.006781
0.203000	-0.006452
0.204000	-0.004479
0.205000	-0.001520
0.206000	-0.001520
0.207000	0.000453
0.208000	0.005385
0.209000	0.008673
0.210000	0.012619
0.211000	0.006043
0.212000	0.008015
0.213000	0.009659
0.214000	0.012619
0.215000	0.002426
0.216000	-0.008754
0.217000	0.003741
0.218000	-0.000534
0.219000	-0.008425
0.220000	-0.012042
0.221000	-0.009740
0.222000	-0.006123
0.223000	-0.007110
0.224000	-0.004808
0.225000	-0.002835
0.226000	-0.001520
0.227000	-0.001849
0.228000	0.004070
0.229000	0.012948
0.230000	0.004398
0.231000	0.001768
0.232000	0.008015
0.233000	0.008673
0.234000	0.003083
0.235000	0.004398
0.236000	0.001768
0.237000	0.003083
0.238000	0.005385
0.239000	-0.002178
0.240000	0.005385
0.241000	-0.005137
0.242000	-0.000534
0.243000	-0.002835
0.244000	-0.004151
0.245000	-0.004151
0.246000	-0.015659
0.247000	-0.005795
0.248000	0.000782
0.249000	-0.003164
0.250000	0.001110
0.251000	0.006700
0.252000	0.001110
0.253000	-0.003822
0.254000	-0.007768
0.255000	-0.005795
0.256000	-0.005137
0.257000	-0.004808
0.258000	-0.007110
0.259000	-0.005137
0.260000	-0.011056
0.261000	-0.003493
0.262000	0.005056
0.263000	0.013934
0.264000	0.011961
0.265000	0.014263
0.266000	0.026429
0.267000	0.015578
0.268000	0.018209
0.269000	-0.006452
0.270000	-0.003822
0.271000	-0.000863
0.272000	-0.005137
0.273000	-0.021906
0.274000	-0.016974
0.275000	-0.013029
0.276000	-0.003822
0.277000	-0.008425
0.278000	-0.006452
0.279000	-0.001849
0.280000	-0.006452
0.281000	-0.001191
0.282000	-0.015001
0.283000	-0.008096
0.284000	-0.005137
0.285000	0.003412
0.286000	0.009331
0.287000	0.007029
0.288000	0.010317
0.289000	0.007029
0.290000	0.010317
0.291000	0.015907
0.292000	0.007029
0.293000	0.012948
0.294000	0.009659
0.295000	0.004398
0.296000	0.005714
0.297000	0.004727
0.298000	0.002097
0.299000	-0.004151
0.300000	-0.007768
0.301000	-0.007768
0.302000	-0.005137
0.303000	0.004070
0.304000	0.001768
0.305000	0.001768
0.306000	-0.001520
0.307000	0.009988
0.308000	0.014592
0.309000	0.009002
0.310000	0.002754
0.311000	0.008015
0.312000	0.007687
0.313000	0.003741
0.314000	0.000124
0.315000	-0.000205
0.316000	-0.001520
0.317000	0.000782
0.318000	-0.001849
0.319000	-0.007110
0.320000	-0.006452
0.321000	-0.012700
0.322000	-0.005795
0.323000	-0.004479
0.324000	0.005056
0.325000	0.009002
0.326000	0.011632
0.327000	0.010975
0.328000	0.007687
0.329000	0.008344
0.330000	0.010646
0.331000	0.007687
0.332000	0.006700
0.333000	0.001110
0.334000	0.008015
0.335000	0.001439
0.336000	0.001110
0.337000	-0.005137
0.338000	-0.007110
0.339000	-0.003822
0.340000	-0.004808
0.341000	-0.005137
0.342000	0.000782
0.343000	0.002097
0.344000	-0.013029
0.345000	0.007029
0.346000	0.003741
0.347000	0.007687
0.348000	0.005714
0.349000	0.002097
0.350000	0.002754
0.351000	0.006700
0.352000	0.006371
0.353000	0.003412
0.354000	0.008344
0.355000	-0.000534
0.356000	-0.004808
0.357000	-0.003493
0.358000	-0.000534
0.359000	-0.005137
0.360000	-0.012371
0.361000	-0.005795
0.362000	-0.004808
0.363000	-0.000205
0.364000	-0.003164
0.365000	0.009002
0.366000	-0.004151
0.367000	0.008344
0.368000	0.011303
0.369000	0.009331
0.370000	0.006371
0.371000	0.007687
0.372000	0.013276
0.373000	0.006371
0.374000	0.005385
0.375000	0.001110
0.376000	-0.005795
0.377000	0.006043
0.378000	-0.002507
0.379000	0.002754
0.380000	-0.007110
0.381000	-0.001849
0.382000	-0.000534
0.383000	-0.003164
0.384000	0.002097
0.385000	0.003412
0.386000	0.000453
0.387000	0.004070
0.388000	0.005056
0.389000	0.009002
0.390000	0.009331
0.391000	0.004070
0.392000	0.002426
0.393000	0.009331
0.394000	0.006700
0.395000	0.002426
0.396000	-0.001849
0.397000	-0.006123
0.398000	-0.007439
0.399000	-0.004479
0.400000	-0.006452
0.401000	-0.006452
0.402000	-0.009083
0.403000	0.003741
0.404000	0.014263
0.405000	0.005056
0.406000	0.010646
0.407000	0.002426
0.408000	0.008344
0.409000	0.006043
0.410000	0.003741
0.411000	0.006043
0.412000	-0.012371
0.413000	-0.014673
0.414000	-0.015001
0.415000	-0.004808
0.416000	-0.015659
0.417000	-0.042293
0.418000	-0.053472
0.419000	-0.029140
0.420000	0.003412
0.421000	0.030703
0.422000	0.070161
0.423000	0.089889
0.424000	0.107645
0.425000	0.121126
0.426000	0.085286
0.427000	0.043198
0.428000	0.015907
0.429000	0.002097
0.430000	-0.006781
0.431000	-0.028154
0.432000	-0.021906
0.433000	-0.012042
0.434000	-0.044266
0.435000	-0.086682
0.436000	-0.085367
0.437000	-0.083394
0.438000	-0.053144
0.439000	-0.046567
0.440000	-0.070242
0.441000	-0.042293
0.442000	0.024785
0.443000	0.085615
0.444000	0.131648
0.445000	0.132635
0.446000	0.106330
0.447000	0.089561
0.448000	0.068188
0.449000	0.038924
0.450000	0.010975
0.451000	-0.000863
0.452000	-0.018618
0.453000	-0.032100
0.454000	-0.020591
0.455000	-0.010069
0.456000	0.016893
0.457000	0.011961
0.458000	0.008673
0.459000	0.010975
0.460000	0.007029
0.461000	-0.010398
0.462000	-0.023550
0.463000	-0.015330
0.464000	-0.016645
0.465000	-0.020920
0.466000	-0.002178
0.467000	-0.004151
0.468000	-0.001520
0.469000	-0.005795
0.470000	-0.005795
0.471000	0.005056
0.472000	0.013276
0.473000	-0.000863
0.474000	0.003412
0.475000	-0.001191
0.476000	0.009988
0.477000	-0.019934
0.478000	-0.006123
0.479000	-0.007110
0.480000	-0.017632
0.481000	-0.019276
0.482000	-0.013029
0.483000	-0.008096
0.484000	-0.010069
0.485000	-0.005466
0.486000	-0.008096
0.487000	0.000124
0.488000	0.000124
0.489000	-0.002507
0.490000	-0.003164
0.491000	-0.003493
0.492000	-0.006781
0.493000	-0.012042
0.494000	-0.032428
0.495000	-0.031771
0.496000	-0.052157
0.497000	-0.076818
0.498000	-0.097862
0.499000	-0.086682
0.500000	-0.048869
0.501000	-0.070571
0.502000	-0.058076
0.503000	-0.006452
0.504000	0.033005
0.505000	0.092849
0.506000	0.119154
0.507000	0.136581
0.508000	0.167160
0.509000	0.135265
0.510000	0.090547
0.511000	0.057995
0.512000	0.003083
0.513000	-0.037689
0.514000	-0.112001
0.515000	-0.133373
0.516000	-0.089642
0.517000	-0.045581
0.518000	-0.026181
0.519000	-0.000863
0.520000	-0.011384
0.521000	-0.030127
0.522000	-0.035388
0.523000	-0.033086
0.524000	-0.040320
0.525000	-0.034401
0.526000	-0.027167
0.527000	-0.040977
0.528000	-0.030127
0.529000	-0.006123
0.530000	0.003083
0.531000	0.002754
0.532000	0.020510
0.533000	0.002097
0.534000	-0.003493
0.535000	-0.013686
0.536000	-0.036374
0.537000	-0.053801
0.538000	-0.041635
0.539000	-0.020262
0.540000	-0.020591
0.541000	-0.071228
0.542000	-0.058733
0.543000	0.004070
0.544000	0.055693
0.545000	0.003412
0.546000	-0.021578
0.547000	-0.029469
0.548000	-0.038676
0.549000	0.010975
0.550000	0.088903
0.551000	0.097123
0.552000	0.079696
0.553000	-0.016317
0.554000	0.050432
0.555000	0.070161
0.556000	-0.069255
0.557000	-0.157705
0.558000	-0.164611
0.559000	-0.018290
0.560000	0.146445
0.561000	0.134279
0.562000	0.141184
0.563000	0.311837
0.564000	0.408179
0.565000	0.303617
0.566000	0.094493
0.567000	-0.028811
0.568000	-0.088655
0.569000	-0.174475
0.570000	-0.275420
0.571000	-0.293176
0.572000	-0.135675
0.573000	-0.056760
0.574000	0.037280
0.575000	0.150062
0.576000	0.139211
0.577000	-0.026181
0.578000	-0.138963
0.579000	-0.240566
0.580000	-0.274105
0.581000	-0.337236
0.582000	-0.394450
0.583000	-0.250759
0.584000	-0.001520
0.585000	0.155980
0.586000	0.324003
0.587000	0.421660
0.588000	0.399630
0.589000	0.333210
0.590000	0.110933
0.591000	-0.061364
0.592000	-0.172831
0.593000	-0.150800
0.594000	-0.042622
0.595000	0.074106
0.596000	0.071805
0.597000	0.039252
0.598000	0.017880
0.599000	0.060625
0.600000	-0.002178
0.601000	-0.136990
0.602000	-0.165926
0.603000	-0.159350
0.604000	-0.204068
0.605000	-0.192559
0.606000	-0.222481
0.607000	-0.107726
0.608000	-0.097862
0.609000	-0.024537
0.610000	0.004398
0.611000	0.032019
0.612000	-0.033415
0.613000	-0.120221
0.614000	-0.007768
0.615000	-0.071557
0.616000	0.069503
0.617000	0.166502
0.618000	0.216153
0.619000	0.295068
0.620000	0.483805
0.621000	0.476571
0.622000	0.258898
0.623000	0.102055
0.624000	-0.019276
0.625000	-0.210973
0.626000	-0.474351
0.627000	-0.481585
0.628000	-0.265556
0.629000	-0.424371
0.630000	-0.456595
0.631000	-0.266213
0.632000	-0.040320
0.633000	0.276983
0.634000	0.339786
0.635000	0.428565
0.636000	0.134937
0.637000	-0.203739
0.638000	-0.382284
0.639000	-0.428975
0.640000	-0.601272
0.641000	-0.545374
0.642000	-0.171516
0.643000	0.072462
0.644000	0.378586
0.645000	0.663336
0.646000	0.779078
0.647000	0.533785
0.648000	0.167489
0.649000	-0.116275
0.650000	-0.405629
0.651000	-0.587791
0.652000	-0.377351
0.653000	0.033005
0.654000	0.153021
0.655000	0.205302
0.656000	0.197082
0.657000	0.221085
0.658000	0.307891
0.659000	0.220756
0.660000	0.007687
0.661000	-0.286599
0.662000	-0.442456
0.663000	-0.609492
0.664000	-0.643031
0.665000	-0.346443
0.666000	0.020839
0.667000	0.319728
0.668000	0.538717
0.669000	0.516358
0.670000	0.184258
0.671000	-0.064981
0.672000	-0.373406
0.673000	-0.369131
0.674000	-0.193217
0.675000	-0.050513
0.676000	0.004727
0.677000	0.088245
0.678000	0.268105
0.679000	0.218783
0.680000	0.025442
0.681000	-0.011713
0.682000	0.403575
0.683000	0.336169
0.684000	-0.015659
0.685000	0.129676
0.686000	0.276325
0.687000	-0.040320
0.688000	-0.601601
0.689000	-0.861691
0.690000	-0.969541
0.691000	-1.033988
0.692000	-0.694654
0.693000	-0.412205
0.694000	0.019524
0.695000	0.433497
0.696000	0.677475
0.697000	0.661034
0.698000	0.523591
0.699000	0.275668
0.700000	0.016564
0.701000	-0.371762
0.702000	-0.640072
0.703000	-0.625933
0.704000	-0.356965
0.705000	-0.148170
0.706000	-0.121536
0.707000	-0.024208
0.708000	0.163872
0.709000	0.218126
0.710000	0.416070
0.711000	0.631441
0.712000	0.429223
0.713000	0.317427
0.714000	-0.164282
0.715000	-0.919890
0.716000	-1.135919
0.717000	-1.033988
0.718000	-0.516110
0.719000	0.196095
0.720000	0.680434
0.721000	0.805054
0.722000	0.591655
0.723000	0.287176
0.724000	0.002754
0.725000	-0.209000
0.726000	-0.342169
0.727000	-0.026839
0.728000	0.068517
0.729000	-0.376694
0.730000	-0.561486
0.731000	-0.446402
0.732000	-0.157048
0.733000	0.489395
0.734000	0.936249
0.735000	0.944141
0.736000	0.761322
0.737000	0.406863
0.738000	-0.181051
0.739000	-0.634482
0.740000	-0.508876
0.741000	-0.390504
0.742000	-0.053801
0.743000	0.587381
0.744000	0.714631
0.745000	0.252980
0.746000	-0.060706
0.747000	-0.212946
0.748000	-0.317179
0.749000	-0.331975
0.750000	0.057666
0.751000	0.262515
0.752000	0.163872
0.753000	0.121784
0.754000	-0.178092
0.755000	-0.436866
0.756000	-0.113316
0.757000	0.231936
0.758000	0.557130
0.759000	0.474270
0.760000	0.442375
0.761000	0.273366
0.762000	0.042212
0.763000	-0.046896
0.764000	-0.320138
0.765000	-0.613767
0.766000	-0.549977
0.767000	-0.614424
0.768000	-0.224125
0.769000	0.600862
0.770000	0.944470
0.771000	1.295311
0.772000	0.971761
0.773000	0.049117
0.774000	-0.616068
0.775000	-0.785077
0.776000	-0.969212
0.777000	-0.895558
0.778000	-0.184997
0.779000	0.228319
0.780000	0.466707
0.781000	0.492354
0.782000	0.207604
0.783000	0.123099
0.784000	0.208590
0.785000	0.135265
0.786000	0.188204
0.787000	-0.152116
0.788000	-0.479941
0.789000	-0.621658
0.790000	-0.447717
0.791000	-0.280352
0.792000	-0.115289
0.793000	-0.089970
0.794000	-0.093916
0.795000	-0.032757
0.796000	0.301315
0.797000	0.446978
0.798000	0.501232
0.799000	0.452239
0.800000	0.131648
0.801000	-0.060377
0.802000	-0.202753
0.803000	-0.067940
0.804000	0.003741
0.805000	0.193794
0.806000	0.092191
0.807000	-0.088655
0.808000	-0.038676
0.809000	-0.018618
0.810000	-0.277393
0.811000	-0.445087
0.812000	-0.546032
0.813000	-0.280352
0.814000	0.104357
0.815000	0.643607
0.816000	0.827413
0.817000	0.497615
0.818000	0.318413
0.819000	0.064242
0.820000	-0.305342
0.821000	-0.217220
0.822000	-0.352033
0.823000	-0.488490
0.824000	-0.317179
0.825000	-0.179736
0.826000	-0.170529
0.827000	-0.281667
0.828000	-0.445087
0.829000	-0.399711
0.830000	0.069174
0.831000	0.529510
0.832000	0.806040
0.833000	0.678461
0.834000	0.460460
0.835000	0.184587
0.836000	0.009659
0.837000	-0.109041
0.838000	-0.140607
0.839000	-0.035388
0.840000	0.115208
0.841000	-0.058733
0.842000	-0.368474
0.843000	-0.643360
0.844000	-0.329674
0.845000	0.162228
0.846000	0.663336
0.847000	0.551540
0.848000	0.039252
0.849000	-0.219193
0.850000	-0.193217
0.851000	-0.183024
0.852000	0.011632
0.853000	-0.054130
0.854000	-0.045581
0.855000	0.024456
0.856000	0.107645
0.857000	0.242129
0.858000	0.267447
0.859000	0.411796
0.860000	0.110604
0.861000	0.037937
0.862000	-0.022235
0.863000	-0.441470
0.864000	-0.355321
0.865000	-0.411548
0.866000	-0.249115
0.867000	0.165516
0.868000	0.336169
0.869000	0.331237
0.870000	0.311508
0.871000	0.149075
0.872000	-0.029469
0.873000	-0.091614
0.874000	-0.188943
0.875000	-0.188614
0.876000	-0.008425
0.877000	-0.008754
0.878000	-0.049855
0.879000	-0.130085
0.880000	-0.288901
0.881000	-0.298766
0.882000	-0.319481
0.883000	-0.215247
0.884000	0.292108
0.885000	0.656760
0.886000	0.665638
0.887000	0.317427
0.888000	0.055693
0.889000	-0.096547
0.890000	-0.170200
0.891000	-0.222481
0.892000	-0.093258
0.893000	0.325976
0.894000	0.575215
0.895000	0.393382
0.896000	0.077723
0.897000	-0.409575
0.898000	-0.374063
0.899000	-0.200122
0.900000	-0.231688
0.901000	-0.095889
0.902000	-0.269830
0.903000	-0.205712
0.904000	0.202014
0.905000	0.442704
0.906000	0.450924
0.907000	0.239170
0.908000	0.108960
0.909000	0.044513
0.910000	-0.039005
0.911000	-0.178421
0.912000	-0.249115
0.913000	-0.108055
0.914000	0.153350
0.915000	0.224044
0.916000	0.122442
0.917000	0.013605
0.918000	-0.023879
0.919000	-0.110028
0.920000	-0.288244
0.921000	-0.264898
0.922000	-0.098848
0.923000	0.175380
0.924000	0.269749
0.925000	0.466049
0.926000	0.350637
0.927000	0.200041
0.928000	0.047473
0.929000	0.012948
0.930000	0.197411
0.931000	0.379243
0.932000	0.440731
0.933000	0.336498
0.934000	0.088903
0.935000	-0.335921
0.936000	-0.576282
0.937000	-0.627906
0.938000	-0.375707
0.939000	-0.114302
0.940000	-0.155404
0.941000	-0.312576
0.942000	-0.298108
0.943000	-0.276735
0.944000	-0.018290
0.945000	0.337813
0.946000	0.664651
0.947000	0.672214
0.948000	0.386806
0.949000	0.110604
0.950000	-0.052157
0.951000	-0.226756
0.952000	-0.584831
0.953000	-0.768308
0.954000	-0.547018
0.955000	0.087259
0.956000	0.584093
0.957000	0.786969
0.958000	0.645580
0.959000	0.234895
0.960000	0.002097
0.961000	-0.179078
0.962000	-0.049527
0.963000	0.061612
0.964000	0.189848
0.965000	0.226675
0.966000	0.129018
0.967000	-0.065310
0.968000	-0.351047
0.969000	-0.505917
0.970000	-0.325399
0.971000	-0.105753
0.972000	-0.093587
0.973000	-0.045910
0.974000	-0.072872
0.975000	0.065886
0.976000	0.246075
0.977000	0.223058
0.978000	0.209577
0.979000	0.177024
0.980000	0.171763
0.981000	0.177682
0.982000	0.212865
0.983000	0.021497
0.984000	-0.378009
0.985000	-0.618041
0.986000	-0.564116
0.987000	-0.207356
0.988000	0.196095
0.989000	0.399301
0.990000	0.386148
0.991000	0.386806
0.992000	0.291779
0.993000	0.195438
0.994000	0.150719
0.995000	0.133950
0.996000	0.060625
0.997000	-0.105096
0.998000	-0.238593
0.999000	-0.353019
1.000000	-0.446402
1.001000	-0.246156
1.002000	0.064242
1.003000	0.369379
1.004000	0.443033
1.005000	0.105344
1.006000	-0.151129
1.007000	-0.389517
1.008000	-0.353348
1.009000	-0.072215
1.010000	0.196095
1.011000	0.159269
1.012000	0.095150
1.013000	0.029717
1.014000	-0.138306
1.015000	-0.199136
1.016000	-0.219851
1.017000	-0.320138
1.018000	-0.415822
1.019000	-0.088984
1.020000	0.347020
1.021000	0.448622
1.022000	0.518002
1.023000	0.301315
1.024000	0.120140
1.025000	0.031032
1.026000	-0.012371
1.027000	-0.016974
1.028000	-0.191244
1.029000	-0.247800
1.030000	-0.151458
1.031000	-0.078791
1.032000	-0.024208
1.033000	0.030046
1.034000	0.131648
1.035000	0.086930
1.036000	-0.041306
1.037000	-0.075174
1.038000	-0.007110
1.039000	0.096137
1.040000	0.207933
1.041000	0.075093
1.042000	-0.182038
1.043000	-0.238264
1.044000	-0.245827
1.045000	0.043527
1.046000	0.033005
1.047000	-0.054130
1.048000	-0.022235
1.049000	0.170448
1.050000	0.379901
1.051000	0.306247
1.052000	0.130333
1.053000	-0.218536
1.054000	-0.180065
1.055000	-0.078133
1.056000	-0.128441
1.057000	-0.363541
1.058000	-0.558855
1.059000	-0.578913
1.060000	-0.099506
1.061000	0.264817
1.062000	0.633414
1.063000	0.729427
1.064000	0.664980
1.065000	0.365104
1.066000	-0.153431
1.067000	-0.364528
1.068000	-0.492435
1.069000	-0.421412
1.070000	-0.108055
1.071000	0.113893
1.072000	0.177024
1.073000	0.007029
1.074000	-0.227085
1.075000	-0.307972
1.076000	-0.184339
1.077000	-0.041964
1.078000	0.259885
1.079000	0.366420
1.080000	0.363131
1.081000	0.080683
1.082000	-0.054459
1.083000	-0.084709
1.084000	0.048788
1.085000	0.134608
1.086000	0.103699
1.087000	0.052734
1.088000	-0.008096
1.089000	-0.025195
1.090000	-0.074187
1.091000	-0.122194
1.092000	-0.108713
1.093000	-0.091943
1.094000	-0.001849
1.095000	0.104686
1.096000	0.115537
1.097000	0.092849
1.098000	-0.002178
1.099000	-0.041964
1.100000	0.034649
1.101000	0.083971
1.102000	0.053720
1.103000	-0.049198
1.104000	-0.132716
1.105000	-0.077147
1.106000	-0.008754
1.107000	0.027744
1.108000	0.040239
1.109000	0.036951
1.110000	0.079039
1.111000	0.105015
1.112000	0.246075
1.113000	0.207933
1.114000	0.105344
1.115000	-0.081421
1.116000	-0.285284
1.117000	-0.304026
1.118000	-0.196176
1.119000	-0.160665
1.120000	-0.096547
1.121000	-0.149156
1.122000	-0.093916
1.123000	-0.112001
1.124000	-0.047554
1.125000	-0.033744
1.126000	0.115865
1.127000	0.187875
1.128000	0.114550
1.129000	0.010975
1.130000	0.029388
1.131000	0.096137
1.132000	0.172092
1.133000	0.114879
1.134000	0.055364
1.135000	-0.000534
1.136000	-0.025523
1.137000	-0.028154
1.138000	-0.041964
1.139000	-0.053801
1.140000	-0.052815
1.141000	-0.031113
1.142000	-0.020920
1.143000	-0.026839
1.144000	0.004070
1.145000	0.003741
1.146000	-0.020591
1.147000	0.001439
1.148000	-0.014673
1.149000	-0.014344
1.150000	-0.015988
1.151000	-0.010398
1.152000	-0.007439
1.153000	0.009988
1.154000	0.012619
1.155000	0.022154
1.156000	0.018537
1.157000	0.014592
1.158000	0.033334
1.159000	0.023798
1.160000	0.029059
1.161000	0.025114
1.162000	0.019524
1.163000	0.015907
1.164000	0.016564
1.165000	0.009659
1.166000	0.004727
1.167000	0.003412
1.168000	0.014592
1.169000	0.012290
1.170000	0.011303
1.171000	0.003741
1.172000	-0.004808
1.173000	-0.004808
1.174000	-0.006123
1.175000	-0.013357
1.176000	-0.021249
1.177000	-0.023879
1.178000	-0.024866
1.179000	-0.025523
1.180000	-0.029469
1.181000	-0.026181
1.182000	-0.030127
1.183000	-0.031113
1.184000	-0.029469
1.185000	-0.022235
1.186000	-0.030127
1.187000	-0.028811
1.188000	-0.025523
1.189000	-0.030127
1.190000	-0.031113
1.191000	-0.038676
1.192000	-0.030127
1.193000	-0.029798
1.194000	-0.039991
1.195000	-0.052815
1.196000	-0.061693
1.197000	-0.060049
1.198000	-0.054788
1.199000	-0.043937
1.200000	-0.034072
1.201000	-0.029798
1.202000	-0.015001
1.203000	0.000782
1.204000	0.012948
1.205000	0.016564
1.206000	0.010975
1.207000	0.016893
1.208000	0.012290
1.209000	0.017880
1.210000	0.012290
1.211000	0.006700
1.212000	0.018209
1.213000	0.016893
1.214000	0.012290
1.215000	-0.005466
1.216000	-0.010069
1.217000	-0.000205
1.218000	-0.001191
1.219000	0.011632
1.220000	0.006043
1.221000	-0.002507
1.222000	0.006043
1.223000	-0.003493
1.224000	0.000124
1.225000	0.013276
1.226000	0.010317
1.227000	0.010646
1.228000	0.014263
1.229000	0.006700
1.230000	0.021168
1.231000	0.027086
1.232000	0.008344
1.233000	0.024127
1.234000	0.010317
1.235000	0.029059
1.236000	0.005714
1.237000	0.003412
1.238000	-0.019605
1.239000	-0.008096
1.240000	-0.000534
1.241000	-0.019276
1.242000	-0.012042
1.243000	0.009331
1.244000	0.021825
1.245000	0.033663
1.246000	0.062269
1.247000	0.071476
1.248000	0.071476
1.249000	0.064900
1.250000	0.074764
1.251000	0.054707
1.252000	0.041225
1.253000	0.061940
1.254000	0.069174
1.255000	0.061283
1.256000	0.043856
1.257000	0.046486
1.258000	0.053391
1.259000	0.049117
1.260000	0.049117
1.261000	0.035307
1.262000	0.037937
1.263000	0.067530
1.264000	0.081340
1.265000	0.073449
1.266000	0.079367
1.267000	0.078052
1.268000	0.088574
1.269000	0.089232
1.270000	0.093835
1.271000	0.091533
1.272000	0.074764
1.273000	0.068845
1.274000	0.067859
1.275000	0.060954
1.276000	0.049774
1.277000	0.052734
1.278000	0.062598
1.279000	0.055035
1.280000	0.049117
1.281000	0.052076
1.282000	0.028730
1.283000	0.053720
1.284000	0.083313
1.285000	0.061940
1.286000	0.065886
1.287000	0.046157
1.288000	0.020839
1.289000	0.011632
1.290000	0.004727
1.291000	0.010317
1.292000	0.036293
1.293000	0.051747
1.294000	0.034649
1.295000	0.021497
1.296000	0.003412
1.297000	0.031032
1.298000	0.023798
1.299000	-0.005795
1.300000	-0.011384
1.301000	-0.030127
1.302000	-0.065967
1.303000	-0.067282
1.304000	-0.045581
1.305000	-0.012371
1.306000	0.014920
1.307000	0.017551
1.308000	0.006700
1.309000	-0.011056
1.310000	-0.018947
1.311000	0.001768
1.312000	-0.004479
1.313000	0.016236
1.314000	0.006371
1.315000	-0.018947
1.316000	-0.027825
1.317000	-0.027167
1.318000	-0.006781
1.319000	-0.019276
1.320000	-0.032100
1.321000	-0.082408
1.322000	-0.126797
1.323000	-0.144553
1.324000	-0.160994
1.325000	-0.162309
1.326000	-0.142580
1.327000	-0.129428
1.328000	-0.091286
1.329000	-0.075503
1.330000	-0.055774
1.331000	-0.098191
1.332000	-0.203081
1.333000	-0.258979
1.334000	-0.291532
1.335000	-0.278708
1.336000	-0.270159
1.337000	-0.283640
1.338000	-0.284298
1.339000	-0.273447
1.340000	-0.246156
1.341000	-0.195519
1.342000	-0.176777
1.343000	-0.189271
1.344000	-0.148170
1.345000	-0.097204
1.346000	-0.080764
1.347000	-0.083394
1.348000	-0.084381
1.349000	-0.015988
1.350000	0.043856
1.351000	0.057666
1.352000	0.052076
1.353000	0.037608
1.354000	0.035964
1.355000	0.051747
1.356000	0.042869
1.357000	0.031361
1.358000	0.022154
1.359000	-0.011384
1.360000	-0.018947
1.361000	0.003412
1.362000	0.018209
1.363000	0.045500
1.364000	0.074106
1.365000	0.065557
1.366000	0.073120
1.367000	0.048788
1.368000	0.041554
1.369000	0.037937
1.370000	0.034320
1.371000	0.061283
1.372000	0.061612
1.373000	0.065557
1.374000	0.064571
1.375000	0.058652
1.376000	0.050103
1.377000	0.057995
1.378000	0.040568
1.379000	0.043856
1.380000	0.024785
1.381000	0.048459
1.382000	0.038924
1.383000	0.021825
1.384000	0.012290
1.385000	0.012290
1.386000	0.002754
1.387000	-0.012042
1.388000	-0.018290
1.389000	-0.016317
1.390000	-0.019934
1.391000	-0.013686
1.392000	-0.009740
1.393000	-0.008754
1.394000	-0.005137
1.395000	0.001768
1.396000	-0.001849
1.397000	0.024127
1.398000	0.045500
1.399000	0.024127
1.400000	0.034649
1.401000	0.039581
1.402000	0.046157
1.403000	0.057666
1.404000	0.044842
1.405000	0.030703
1.406000	0.027415
1.407000	0.025771
1.408000	0.025442
1.409000	0.028402
1.410000	0.045829
1.411000	0.029388
1.412000	0.038924
1.413000	0.045500
1.414000	0.053720
1.415000	0.029388
1.416000	0.020181
1.417000	0.013934
1.418000	0.021168
1.419000	0.014592
1.420000	0.018866
1.421000	0.033663
1.422000	0.022812
1.423000	0.024456
1.424000	0.015249
1.425000	0.013276
1.426000	0.010317
1.427000	0.012948
1.428000	0.015907
1.429000	0.009659
1.430000	0.016893
1.431000	0.010975
1.432000	0.009659
1.433000	-0.001520
1.434000	-0.012042
1.435000	-0.010069
1.436000	-0.005795
1.437000	-0.007110
1.438000	-0.014673
1.439000	-0.010069
1.440000	-0.014344
1.441000	-0.000534
1.442000	0.007029
1.443000	0.013276
1.444000	0.003412
1.445000	-0.003822
1.446000	0.000782
1.447000	-0.004808
1.448000	-0.010069
1.449000	-0.015001
1.450000	-0.015988
1.451000	-0.002507
1.452000	0.001110
1.453000	-0.002178
1.454000	-0.006781
1.455000	-0.007439
1.456000	-0.001191
1.457000	0.000782
1.458000	0.006371
1.459000	0.000453
1.460000	0.002097
1.461000	0.004398
1.462000	0.011632
1.463000	0.014920
1.464000	0.010975
1.465000	0.015249
1.466000	0.019524
1.467000	0.015578
1.468000	0.023470
1.469000	0.026429
1.470000	0.032019
1.471000	0.013934
1.472000	0.017222
1.473000	0.024785
1.474000	0.018866
1.475000	0.017222
1.476000	0.007029
1.477000	0.021497
1.478000	0.018209
1.479000	0.010317
1.480000	0.008673
1.481000	-0.006781
1.482000	-0.004151
1.483000	-0.004479
1.484000	-0.020262
1.485000	-0.005137
1.486000	0.001439
1.487000	-0.011056
1.488000	-0.012371
1.489000	0.001439
1.490000	0.004727
1.491000	0.005714
1.492000	-0.002507
1.493000	-0.036045
1.494000	-0.042622
1.495000	-0.062350
1.496000	-0.040977
1.497000	-0.023222
1.498000	-0.002507
1.499000	0.001439
1.500000	0.051418
1.501000	0.087917
1.502000	0.128360
1.503000	0.095150
1.504000	0.102055
1.505000	0.074764
1.506000	0.046815
1.507000	0.035636
1.508000	0.013605
1.509000	-0.004151
1.510000	-0.015330
1.511000	-0.006452
1.512000	-0.018290
1.513000	-0.031113
1.514000	-0.009412
1.515000	-0.004808
1.516000	-0.014344
1.517000	-0.015988
1.518000	-0.004808
1.519000	-0.027496
1.520000	-0.038347
1.521000	-0.017961
1.522000	-0.032757
1.523000	-0.022893
1.524000	-0.026510
1.525000	-0.020262
1.526000	-0.038676
1.527000	-0.057089
1.528000	-0.048869
1.529000	-0.030784
1.530000	-0.011056
1.531000	-0.003493
1.532000	-0.011384
1.533000	0.004727
1.534000	0.006043
1.535000	0.018209
1.536000	0.020510
1.537000	0.019524
1.538000	0.009988
1.539000	0.022154
1.540000	0.014592
1.541000	0.016893
1.542000	0.013276
1.543000	0.017880
1.544000	0.021168
1.545000	0.029717
1.546000	0.037937
1.547000	0.030375
1.548000	0.029388
1.549000	0.027086
1.550000	0.025771
1.551000	0.034320
1.552000	0.032347
1.553000	0.025442
1.554000	0.020839
1.555000	0.024127
1.556000	0.022812
1.557000	0.016564
1.558000	0.017880
1.559000	0.015249
1.560000	0.012619
1.561000	0.007687
1.562000	0.012290
1.563000	0.018866
1.564000	0.005714
1.565000	0.010646
1.566000	0.012948
1.567000	0.012619
1.568000	0.014592
1.569000	0.009331
1.570000	0.014920
1.571000	0.009988
1.572000	0.007029
1.573000	0.006700
1.574000	0.011632
1.575000	0.009331
1.576000	0.007687
1.577000	-0.004479
1.578000	-0.010069
1.579000	-0.009740
1.580000	-0.013029
1.581000	-0.019276
1.582000	-0.038347
1.583000	-0.038347
1.584000	-0.049855
1.585000	-0.043279
1.586000	-0.005466
1.587000	0.025442
1.588000	0.038924
1.589000	0.053063
1.590000	0.066215
1.591000	0.046157
1.592000	0.047802
1.593000	0.038924
1.594000	0.025442
1.595000	-0.013686
1.596000	-0.033744
1.597000	-0.018290
1.598000	0.008015
1.599000	0.025442
1.600000	0.041554
1.601000	0.033663
1.602000	0.014920
1.603000	0.025114
1.604000	0.011632
1.605000	0.002097
1.606000	-0.033086
1.607000	-0.032428
1.608000	-0.037361
1.609000	-0.046567
1.610000	-0.053472
1.611000	-0.062021
1.612000	-0.063008
1.613000	-0.051828
1.614000	-0.037361
1.615000	-0.006781
1.616000	-0.007110
1.617000	0.029388
1.618000	0.052734
1.619000	0.078381
1.620000	0.077723
1.621000	0.059639
1.622000	0.023470
1.623000	0.002754
1.624000	-0.013029
1.625000	-0.008754
1.626000	-0.012042
1.627000	-0.040649
1.628000	-0.025852
1.629000	-0.019276
1.630000	-0.008425
1.631000	-0.007110
1.632000	-0.004151
1.633000	-0.000205
1.634000	-0.008754
1.635000	-0.019605
1.636000	-0.027167
1.637000	-0.020591
1.638000	-0.013029
1.639000	-0.005795
1.640000	-0.008754
1.641000	-0.008425
1.642000	0.000453
1.643000	-0.000534
1.644000	-0.007768
1.645000	-0.011056
1.646000	-0.000863
1.647000	0.001768
1.648000	0.002754
1.649000	-0.002178
1.650000	-0.000863
1.651000	-0.003493
1.652000	-0.008754
1.653000	-0.008754
1.654000	-0.021578
1.655000	-0.014344
1.656000	-0.019605
1.657000	-0.017303
1.658000	-0.019605
1.659000	-0.014673
1.660000	-0.014673
1.661000	-0.012371
1.662000	-0.004479
1.663000	0.005385
1.664000	0.003741
1.665000	-0.001520
1.666000	0.002426
1.667000	0.011303
1.668000	0.021825
1.669000	0.021497
1.670000	0.015907
1.671000	0.008344
1.672000	0.015249
1.673000	0.005714
1.674000	0.009331
1.675000	0.000124
1.676000	-0.004151
1.677000	-0.007439
1.678000	-0.001520
1.679000	0.006043
1.680000	0.001439
1.681000	0.002754
1.682000	0.004070
1.683000	-0.005137
1.684000	0.001110
1.685000	0.006043
1.686000	0.010646
1.687000	0.003741
1.688000	0.007358
1.689000	0.015249
1.690000	0.021497
1.691000	0.009988
1.692000	0.000453
1.693000	0.007029
1.694000	0.014920
1.695000	0.009002
1.696000	-0.010398
1.697000	-0.008425
1.698000	-0.007110
1.699000	-0.015001
1.700000	-0.024537
1.701000	-0.016974
1.702000	-0.022893
1.703000	-0.028154
1.704000	-0.013357
1.705000	0.008015
1.706000	-0.011056
1.707000	-0.028483
1.708000	0.000124
1.709000	0.008673
1.710000	-0.002835
1.711000	0.013605
1.712000	0.024785
1.713000	0.053720
1.714000	0.065229
1.715000	0.045500
1.716000	0.009659
1.717000	-0.019934
1.718000	-0.014344
1.719000	-0.019605
1.720000	-0.014344
1.721000	-0.006781
1.722000	0.008673
1.723000	0.028402
1.724000	0.041225
1.725000	0.044513
1.726000	0.029388
1.727000	0.020181
1.728000	0.011303
1.729000	0.015907
1.730000	0.012619
1.731000	-0.004808
1.732000	-0.020920
1.733000	-0.031442
1.734000	-0.018618
1.735000	-0.007768
1.736000	-0.016645
1.737000	-0.007439
1.738000	0.008015
1.739000	0.019524
1.740000	0.023141
1.741000	0.015578
1.742000	-0.001520
1.743000	-0.003822
1.744000	-0.004479
1.745000	-0.000534
1.746000	0.012948
1.747000	0.025771
1.748000	0.018209
1.749000	0.020839
1.750000	0.027086
1.751000	0.022154
1.752000	0.021497
1.753000	0.009988
1.754000	0.011632
1.755000	0.010975
1.756000	0.020510
1.757000	0.014263
1.758000	0.012948
1.759000	0.017551
1.760000	0.017880
1.761000	0.012290
1.762000	0.002426
1.763000	0.024127
1.764000	0.019853
1.765000	0.015578
1.766000	0.020839
1.767000	0.007029
1.768000	-0.000205
1.769000	0.013934
1.770000	0.013276
1.771000	0.018209
1.772000	0.021497
1.773000	0.015249
1.774000	0.019853
1.775000	0.007687
1.776000	-0.000534
1.777000	0.002097
1.778000	-0.001191
1.779000	-0.004151
1.780000	-0.001520
1.781000	0.004727
1.782000	0.000782
1.783000	0.002426
1.784000	0.003741
1.785000	0.009002
1.786000	0.012619
1.787000	-0.000863
1.788000	0.010975
1.789000	0.017222
1.790000	0.017880
1.791000	0.012290
1.792000	0.013605
1.793000	0.014592
1.794000	0.007358
1.795000	0.009988
1.796000	0.002754
1.797000	-0.000534
1.798000	-0.004151
1.799000	-0.004479
1.800000	-0.004479
1.801000	-0.014673
1.802000	-0.004151
1.803000	-0.011384
1.804000	-0.012371
1.805000	-0.009412
1.806000	-0.002835
1.807000	-0.011056
1.808000	-0.002507
1.809000	-0.003164
1.810000	0.006371
1.811000	0.009659
1.812000	0.011632
1.813000	0.004727
1.814000	0.008344
1.815000	0.004070
1.816000	0.014263
1.817000	0.015249
1.818000	-0.001520
1.819000	-0.004479
1.820000	-0.004808
1.821000	-0.010069
1.822000	-0.003493
1.823000	-0.004151
1.824000	-0.008425
1.825000	0.003412
1.826000	0.016236
1.827000	0.014592
1.828000	0.016236
1.829000	0.009331
1.830000	0.002426
1.831000	-0.006123
1.832000	0.021497
1.833000	0.013605
1.834000	0.012948
1.835000	-0.013686
1.836000	-0.007439
1.837000	-0.044923
1.838000	-0.051828
1.839000	-0.041964
1.840000	-0.031442
1.841000	-0.004808
1.842000	0.019195
1.843000	0.032019
1.844000	0.033005
1.845000	0.056022
1.846000	0.054049
1.847000	0.060625
1.848000	0.043856
1.849000	0.021825
1.850000	0.015249
1.851000	0.010646
1.852000	0.009002
1.853000	0.009331
1.854000	0.006043
1.855000	-0.009740
1.856000	-0.004479
1.857000	-0.005795
1.858000	-0.004151
1.859000	0.000453
1.860000	-0.008425
1.861000	-0.009412
1.862000	-0.009083
1.863000	-0.007110
1.864000	-0.004151
1.865000	0.001439
1.866000	0.004727
1.867000	0.001439
1.868000	-0.003164
1.869000	0.012290
1.870000	0.009988
1.871000	0.004398
1.872000	0.005385
1.873000	0.002754
1.874000	0.004727
1.875000	-0.008425
1.876000	-0.011056
1.877000	0.003741
1.878000	-0.001191
1.879000	-0.009412
1.880000	-0.003493
1.881000	-0.010727
1.882000	-0.014344
1.883000	-0.013686
1.884000	-0.007110
1.885000	-0.001520
1.886000	-0.003822
1.887000	0.006371
1.888000	0.007687
1.889000	0.005056
1.890000	0.012948
1.891000	0.012948
1.892000	0.011632
1.893000	0.008015
1.894000	0.002426
1.895000	0.001768
1.896000	-0.009083
1.897000	-0.008754
1.898000	-0.019934
1.899000	-0.041964
1.900000	-0.020591
1.901000	-0.011713
1.902000	0.002426
1.903000	0.003412
1.904000	-0.013029
1.905000	-0.006452
1.906000	-0.011713
1.907000	0.005056
1.908000	0.003741
1.909000	0.005385
1.910000	0.015578
1.911000	0.011303
1.912000	0.014920
1.913000	0.010317
1.914000	0.004070
1.915000	0.004070
1.916000	-0.017961
1.917000	-0.012042
1.918000	-0.005795
1.919000	-0.006781
1.920000	0.000782
1.921000	0.002754
1.922000	-0.002178
1.923000	0.003741
1.924000	0.011961
1.925000	0.007687
1.926000	0.006371
1.927000	0.009331
1.928000	0.011632
1.929000	-0.002835
1.930000	0.012619
1.931000	0.006043
1.932000	-0.002835
1.933000	0.011632
1.934000	0.000782
1.935000	0.007029
1.936000	0.002754
1.937000	0.011961
1.938000	-0.001191
1.939000	-0.003164
1.940000	-0.002178
1.941000	-0.006452
1.942000	-0.015988
1.943000	-0.007110
1.944000	0.008673
1.945000	0.007029
1.946000	0.015578
1.947000	0.014592
1.948000	0.024785
1.949000	0.015578
1.950000	-0.001849
1.951000	-0.007110
1.952000	0.006043
1.953000	0.009002
1.954000	-0.003493
1.955000	0.001768
1.956000	0.013276
1.957000	0.013605
1.958000	0.002426
1.959000	-0.002835
1.960000	-0.000534
1.961000	0.015249
1.962000	0.018537
1.963000	0.027415
1.964000	0.020181
1.965000	0.036293
1.966000	0.029717
1.967000	0.026758
1.968000	0.024456
1.969000	0.013934
1.970000	0.012948
1.971000	0.011303
1.972000	0.012948
1.973000	0.005714
1.974000	0.004070
1.975000	0.006043
1.976000	0.000453
1.977000	-0.001191
1.978000	-0.006781
1.979000	-0.016317
1.980000	-0.005466
1.981000	-0.006781
1.982000	-0.006123
1.983000	-0.004479
1.984000	0.004070
1.985000	0.005056
1.986000	-0.003493
1.987000	-0.000863
1.988000	0.003741
1.989000	0.009002
1.990000	0.013276
1.991000	0.011632
1.992000	0.009988
1.993000	0.008344
1.994000	0.008015
1.995000	0.005714
1.996000	0.013276
1.997000	-0.009083
1.998000	-0.029140
1.999000	-0.017632
2.000000	-0.016974
2.001000	0.005056
2.002000	-0.013686
2.003000	-0.010398
2.004000	0.005385
2.005000	0.004070
2.006000	0.006371
2.007000	0.004727
2.008000	0.006043
2.009000	0.005056
2.010000	0.004070
2.011000	0.003412
2.012000	-0.002507
2.013000	-0.003822
2.014000	-0.004808
2.015000	0.000453
2.016000	0.007358
2.017000	0.009331
2.018000	0.007029
2.019000	-0.004808
2.020000	-0.008096
2.021000	-0.015001
2.022000	-0.016645
2.023000	-0.008096
2.024000	-0.015001
2.025000	-0.012700
2.026000	-0.012371
2.027000	-0.008425
2.028000	0.006043
2.029000	0.017880
2.030000	0.014592
2.031000	0.010646
2.032000	0.017551
2.033000	0.018537
2.034000	0.010646
2.035000	-0.000534
2.036000	-0.007768
2.037000	-0.012042
2.038000	-0.013686
2.039000	-0.004151
2.040000	-0.008425
2.041000	-0.004808
2.042000	-0.005466
2.043000	-0.008425
2.044000	-0.006781
2.045000	0.006043
2.046000	0.003412
2.047000	0.007358
2.048000	0.008344
2.049000	0.010975
2.050000	0.015578
2.051000	0.011303
2.052000	0.001768
2.053000	0.001110
2.054000	0.008673
2.055000	-0.000534
2.056000	-0.014344
2.057000	-0.019605
2.058000	-0.022564
2.059000	-0.023222
2.060000	-0.010398
2.061000	-0.001191
2.062000	0.006371
2.063000	0.003412
2.064000	0.011632
2.065000	0.023141
2.066000	0.014920
2.067000	0.021497
2.068000	0.021825
2.069000	0.022812
2.070000	0.009988
2.071000	-0.013029
2.072000	-0.011713
2.073000	-0.006781
2.074000	-0.002178
2.075000	-0.005466
2.076000	-0.007768
2.077000	-0.025523
2.078000	-0.034730
2.079000	-0.014015
2.080000	-0.037361
2.081000	-0.015330
2.082000	0.007358
2.083000	0.019853
2.084000	0.019853
2.085000	0.033663
2.086000	0.044185
2.087000	0.027086
2.088000	0.028073
2.089000	0.015578
2.090000	0.013605
2.091000	0.003412
2.092000	0.009002
2.093000	0.006043
2.094000	0.002426
2.095000	0.008015
2.096000	0.003083
2.097000	-0.000534
2.098000	-0.004151
2.099000	-0.005795
2.100000	0.002426
2.101000	0.006043
2.102000	-0.001520
2.103000	-0.002835
2.104000	0.009988
2.105000	0.013605
2.106000	0.014263
2.107000	0.019524
2.108000	0.008673
2.109000	0.002754
2.110000	0.006371
2.111000	0.010317
2.112000	0.009002
2.113000	0.009002
2.114000	0.005714
2.115000	0.005056
2.116000	-0.003164
2.117000	0.000782
2.118000	-0.003164
2.119000	0.001768
2.120000	-0.009412
2.121000	-0.006123
2.122000	-0.002507
2.123000	-0.007768
2.124000	0.001110
2.125000	0.007358
2.126000	0.014263
2.127000	0.015249
2.128000	0.009659
2.129000	0.018209
2.130000	0.009988
2.131000	0.004398
2.132000	-0.002178
2.133000	0.010646
2.134000	0.003083
2.135000	0.001439
2.136000	0.000453
2.137000	0.000453
2.138000	-0.004151
2.139000	-0.007110
2.140000	-0.002178
2.141000	-0.004808
2.142000	-0.005466
2.143000	0.001439
2.144000	0.009988
2.145000	0.021168
2.146000	0.016893
2.147000	0.010317
2.148000	0.005056
2.149000	0.005056
2.150000	0.012290
2.151000	0.006371
2.152000	0.015907
2.153000	0.015249
2.154000	0.020510
2.155000	0.022812
2.156000	0.019195
2.157000	0.014920
2.158000	0.016236
2.159000	0.013605
2.160000	0.018537
2.161000	0.021825
2.162000	0.009659
2.163000	0.001110
2.164000	-0.012371
2.165000	-0.017961
2.166000	-0.018290
2.167000	-0.014015
2.168000	0.004398
2.169000	-0.007110
2.170000	-0.011713
2.171000	-0.009412
2.172000	-0.008425
2.173000	-0.006781
2.174000	0.007358
2.175000	0.017880
2.176000	0.014592
2.177000	0.004727
2.178000	0.013605
2.179000	0.005056
2.180000	-0.006123
2.181000	-0.004151
2.182000	0.009002
2.183000	0.015249
2.184000	0.009988
2.185000	-0.001520
2.186000	0.003412
2.187000	0.010646
2.188000	0.010646
2.189000	0.013934
2.190000	-0.000205
2.191000	-0.001191
2.192000	0.004398
2.193000	0.006043
2.194000	-0.000863
2.195000	-0.015988
2.196000	-0.018947
2.197000	-0.009412
2.198000	0.002754
2.199000	0.001110
2.200000	0.010646
2.201000	0.015907
2.202000	0.011961
2.203000	-0.000534
2.204000	0.013605
2.205000	0.004727
2.206000	0.006371
2.207000	0.006371
2.208000	0.001110
2.209000	0.001110
2.210000	-0.004151
2.211000	-0.010727
2.212000	-0.015659
2.213000	0.002097
2.214000	-0.000534
2.215000	-0.006781
2.216000	-0.005137
2.217000	-0.003493
2.218000	-0.006123
2.219000	-0.006123
2.220000	0.002754
2.221000	0.006700
2.222000	0.014920
2.223000	0.013934
2.224000	0.004070
2.225000	0.002097
2.226000	0.001110
2.227000	0.004727
2.228000	0.007687
2.229000	0.004727
2.230000	0.002754
2.231000	0.003741
2.232000	0.004727
2.233000	0.009331
2.234000	0.003741
2.235000	-0.008096
2.236000	-0.006123
2.237000	-0.012371
2.238000	-0.017632
2.239000	-0.016317
2.240000	-0.012371
2.241000	-0.010727
2.242000	-0.002835
2.243000	0.003741
2.244000	-0.003164
2.245000	-0.000534
2.246000	-0.010727
2.247000	-0.015659
2.248000	-0.012700
2.249000	-0.009412
2.250000	-0.005795
2.251000	-0.011056
2.252000	0.005714
2.253000	0.002426
2.254000	-0.005466
2.255000	-0.003822
2.256000	0.000453
2.257000	0.000453
2.258000	0.005056
2.259000	0.010975
2.260000	0.005056
2.261000	0.001110
2.262000	0.008673
2.263000	0.004727
2.264000	-0.011056
2.265000	-0.006781
2.266000	0.005385
2.267000	0.002754
2.268000	0.001439
2.269000	0.013934
2.270000	0.008344
2.271000	0.014263
2.272000	0.014920
2.273000	0.005714
2.274000	-0.001849
2.275000	-0.000863
2.276000	0.001110
2.277000	-0.000534
2.278000	-0.004151
2.279000	-0.020920
2.280000	-0.026181
2.281000	-0.014673
2.282000	-0.013357
2.283000	-0.002507
2.284000	0.001768
2.285000	0.003741
2.286000	0.010646
2.287000	0.018866
2.288000	0.011303
2.289000	0.000124
2.290000	-0.005795
2.291000	0.003083
2.292000	0.004398
2.293000	0.005714
2.294000	0.008673
2.295000	0.006043
2.296000	-0.000534
2.297000	-0.002178
2.298000	-0.009412
2.299000	-0.003493
2.300000	0.001110
2.301000	-0.000863
2.302000	-0.001191
2.303000	0.010646
2.304000	0.003083
2.305000	0.005714
2.306000	0.003083
2.307000	0.000124
2.308000	-0.003493
2.309000	0.006700
2.310000	0.008673
2.311000	0.005714
2.312000	0.007358
2.313000	0.013934
2.314000	0.005056
2.315000	0.010317
2.316000	0.006043
2.317000	-0.004479
2.318000	-0.002835
2.319000	-0.005466
2.320000	-0.010398
2.321000	-0.008425
2.322000	-0.009083
2.323000	-0.001191
2.324000	0.003412
2.325000	0.011303
2.326000	0.009659
2.327000	0.010975
2.328000	0.007358
2.329000	0.005385
2.330000	0.002426
2.331000	0.009331
2.332000	0.009988
2.333000	0.003083
2.334000	-0.013357
2.335000	-0.009740
2.336000	-0.001849
2.337000	0.007687
2.338000	0.009659
2.339000	0.018866
2.340000	0.014263
2.341000	-0.004151
2.342000	0.006043
2.343000	-0.014344
2.344000	-0.015330
2.345000	0.003412
2.346000	0.005714
2.347000	-0.003822
2.348000	0.020839
2.349000	0.028073
2.350000	0.023798
2.351000	0.016893
2.352000	0.017222
2.353000	0.013934
2.354000	0.001768
2.355000	-0.013357
2.356000	-0.010398
2.357000	0.002426
2.358000	0.009659
2.359000	-0.001191
2.360000	-0.001520
2.361000	0.009002
2.362000	0.002097
2.363000	-0.004479
2.364000	-0.006781
2.365000	0.006700
2.366000	0.003741
2.367000	0.012948
2.368000	0.014263
2.369000	0.011961
2.370000	0.004727
2.371000	0.004727
2.372000	0.012948
2.373000	0.003083
2.374000	0.004070
2.375000	0.002754
2.376000	-0.001191
2.377000	0.000124
2.378000	0.001768
2.379000	-0.003822
2.380000	-0.007768
2.381000	-0.007439
2.382000	-0.005137
2.383000	0.003083
2.384000	0.001439
2.385000	0.006043
2.386000	0.003083
2.387000	0.001768
2.388000	-0.000863
2.389000	0.009002
2.390000	0.010317
2.391000	0.009988
2.392000	0.007687
2.393000	-0.000205
2.394000	0.003083
2.395000	-0.005137
2.396000	0.007358
2.397000	-0.006781
2.398000	-0.010727
2.399000	-0.017961
2.400000	-0.011713
2.401000	-0.006452
2.402000	0.003412
2.403000	-0.000534
2.404000	0.009659
2.405000	0.016893
2.406000	0.011961
2.407000	0.013934
2.408000	0.014920
2.409000	0.015907
2.410000	0.009659
2.411000	0.003412
2.412000	0.003083
2.413000	0.002754
2.414000	-0.001520
2.415000	-0.002835
2.416000	-0.002835
2.417000	-0.002507
2.418000	-0.003164
2.419000	-0.003493
2.420000	-0.009412
2.421000	-0.006123
2.422000	-0.000863
2.423000	-0.001849
2.424000	0.005385
2.425000	0.002097
2.426000	-0.001849
2.427000	-0.001191
2.428000	0.013605
2.429000	0.011961
2.430000	0.013934
2.431000	0.014920
2.432000	0.014263
2.433000	0.012619
2.434000	-0.000534
2.435000	-0.002835
2.436000	-0.014015
2.437000	-0.015001
2.438000	-0.008754
2.439000	-0.018947
2.440000	-0.021249
2.441000	-0.007768
2.442000	0.005714
2.443000	0.009659
2.444000	0.004070
2.445000	0.005385
2.446000	0.007029
2.447000	0.006371
2.448000	-0.003164
2.449000	-0.000863
2.450000	-0.000534
2.451000	-0.014673
2.452000	0.002754
2.453000	0.002097
2.454000	-0.003493
2.455000	-0.007110
2.456000	0.006700
2.457000	0.003741
2.458000	0.006700
2.459000	0.011303
2.460000	-0.003822
2.461000	0.014592
2.462000	0.009002
2.463000	0.010975
2.464000	0.003741
2.465000	0.002426
2.466000	0.009988
2.467000	0.014920
2.468000	0.010317
2.469000	0.020181
2.470000	0.019195
2.471000	0.017880
2.472000	0.009988
2.473000	0.011961
2.474000	-0.008096
2.475000	-0.011384
2.476000	-0.007768
2.477000	-0.007768
2.478000	-0.009083
2.479000	-0.010727
2.480000	-0.005137
2.481000	-0.011384
2.482000	-0.003822
2.483000	-0.006781
2.484000	-0.007110
2.485000	-0.000205
2.486000	0.004398
2.487000	0.002426
2.488000	-0.000534
2.489000	0.007687
2.490000	0.008015
2.491000	0.004398
2.492000	-0.004151
2.493000	-0.003822
2.494000	-0.001520
2.495000	0.002754
2.496000	-0.007439
2.497000	-0.008425
2.498000	-0.008096
2.499000	-0.008425
2.500000	0.004070
2.501000	-0.004151
2.502000	-0.003164
2.503000	-0.008425
2.504000	-0.001849
2.505000	0.004398
2.506000	0.004398
2.507000	0.010646
2.508000	0.005385
2.509000	0.009331
2.510000	0.000124
2.511000	-0.001191
2.512000	0.001110
2.513000	-0.002178
2.514000	-0.004151
2.515000	-0.011713
2.516000	-0.001849
2.517000	-0.005137
2.518000	-0.011384
2.519000	-0.011713
2.520000	-0.022893
2.521000	-0.009412
2.522000	-0.006781
2.523000	-0.013357
2.524000	-0.023550
2.525000	-0.017632
2.526000	0.000453
2.527000	0.006043
2.528000	0.004398
2.529000	-0.008096
2.530000	-0.004151
2.531000	0.002754
2.532000	-0.006452
2.533000	-0.007110
2.534000	0.008673
2.535000	0.001768
2.536000	0.002097
2.537000	0.010646
2.538000	0.014263
2.539000	0.018866
2.540000	0.011303
2.541000	0.008673
2.542000	0.007358
2.543000	-0.007439
2.544000	0.001768
2.545000	0.018537
2.546000	0.006371
2.547000	0.006700
2.548000	0.003412
2.549000	0.005385
2.550000	0.014263
2.551000	0.012948
2.552000	0.015249
2.553000	0.001768
2.554000	-0.003822
2.555000	-0.007768
2.556000	0.001110
2.557000	-0.006123
2.558000	-0.007768
2.559000	-0.001520
2.560000	-0.009412
2.561000	0.001439
2.562000	-0.010069
2.563000	-0.006452
2.564000	-0.008754
2.565000	-0.001849
2.566000	0.010646
2.567000	0.012290
2.568000	0.008015
2.569000	0.010646
2.570000	0.010317
2.571000	0.000782
2.572000	0.004398
2.573000	0.005385
2.574000	0.007029
2.575000	-0.002835
2.576000	-0.004151
2.577000	-0.001849
2.578000	-0.008096
2.579000	-0.009740
2.580000	-0.008425
2.581000	-0.014344
2.582000	-0.017961
2.583000	-0.008096
2.584000	-0.002178
2.585000	0.000782
2.586000	-0.003822
2.587000	-0.001520
2.588000	0.013276
2.589000	0.010975
2.590000	0.009988
2.591000	0.012948
2.592000	0.000124
2.593000	0.007358
2.594000	0.001110
2.595000	-0.003493
2.596000	0.000453
2.597000	-0.006452
2.598000	-0.004808
2.599000	-0.004808
2.600000	-0.004151
2.601000	-0.005137
2.602000	-0.000205
2.603000	-0.002507
2.604000	0.000782
2.605000	0.001439
2.606000	-0.000863
2.607000	0.005714
2.608000	0.004398
2.609000	0.007029
2.610000	0.003741
2.611000	0.001439
2.612000	0.004070
2.613000	0.006043
2.614000	0.015249
2.615000	-0.000863
2.616000	0.002097
2.617000	0.001439
2.618000	0.000782
2.619000	0.001110
2.620000	-0.014344
2.621000	-0.007768
2.622000	-0.010398
2.623000	-0.007439
2.624000	0.000124
2.625000	-0.008096
2.626000	-0.006781
2.627000	0.003083
2.628000	0.007029
2.629000	0.015249
2.630000	0.017551
2.631000	0.018209
2.632000	0.015907
2.633000	0.018537
2.634000	0.021168
2.635000	0.000453
2.636000	0.005056
2.637000	-0.003493
2.638000	-0.002835
2.639000	-0.008425
2.640000	0.003412
2.641000	-0.006452
2.642000	-0.001191
2.643000	0.002754
2.644000	0.005714
2.645000	0.002754
2.646000	0.008015
2.647000	0.011303
2.648000	0.018209
2.649000	0.007029
2.650000	0.005056
2.651000	0.012948
2.652000	-0.006452
2.653000	-0.020262
2.654000	-0.012700
2.655000	0.001768
2.656000	0.010646
2.657000	0.004398
2.658000	0.007029
2.659000	0.011303
2.660000	0.023798
2.661000	0.007029
2.662000	-0.001520
2.663000	-0.016317
2.664000	-0.008425
2.665000	0.004070
2.666000	0.004398
2.667000	0.010646
2.668000	0.013276
2.669000	0.003083
2.670000	0.017551
2.671000	0.021497
2.672000	0.023470
2.673000	0.016236
2.674000	0.011961
2.675000	0.002426
2.676000	-0.001520
2.677000	-0.006781
2.678000	0.000453
2.679000	-0.006781
2.680000	-0.007110
2.681000	-0.006452
2.682000	-0.010727
2.683000	-0.005795
2.684000	-0.003493
2.685000	0.004398
2.686000	0.002754
2.687000	0.004070
2.688000	0.007029
2.689000	0.007687
2.690000	0.002426
2.691000	0.008673
2.692000	0.011632
2.693000	0.003412
2.694000	-0.004151
2.695000	0.002097
2.696000	-0.001520
2.697000	0.001768
2.698000	-0.001520
2.699000	-0.005466
2.700000	-0.010069
2.701000	-0.005466
2.702000	-0.005466
2.703000	-0.002507
2.704000	-0.003164
2.705000	-0.003164
2.706000	0.007358
2.707000	0.009331
2.708000	0.011303
2.709000	0.005714
2.710000	0.006700
2.711000	0.013276
2.712000	0.005714
2.713000	0.017222
2.714000	0.002754
2.715000	0.002097
2.716000	-0.003164
2.717000	-0.004479
2.718000	-0.012700
2.719000	-0.002835
2.720000	-0.013357
2.721000	-0.019276
2.722000	-0.008096
2.723000	-0.013357
2.724000	-0.010727
2.725000	-0.004151
2.726000	0.002097
2.727000	0.001439
2.728000	0.007687
2.729000	0.000453
2.730000	0.003412
2.731000	-0.001849
2.732000	-0.004151
2.733000	0.004070
2.734000	0.010975
2.735000	0.002754
2.736000	-0.010069
2.737000	-0.003164
2.738000	0.001439
2.739000	0.001768
2.740000	-0.007768
2.741000	-0.014344
2.742000	-0.014015
2.743000	-0.003493
2.744000	-0.001520
2.745000	-0.004151
2.746000	0.000782
2.747000	0.003412
2.748000	0.010975
2.749000	0.006371
2.750000	0.001768
2.751000	-0.012042
2.752000	-0.007439
2.753000	-0.003164
2.754000	0.004070
2.755000	-0.001849
2.756000	0.001439
2.757000	-0.020262
2.758000	-0.020591
2.759000	-0.009083
2.760000	-0.000205
2.761000	0.009002
2.762000	-0.006781
2.763000	-0.024208
2.764000	-0.024208
2.765000	-0.012042
2.766000	-0.003822
2.767000	-0.005795
2.768000	0.004727
2.769000	0.016236
2.770000	0.022483
2.771000	0.038266
2.772000	0.035307
2.773000	0.026100
2.774000	0.024127
2.775000	0.014920
2.776000	0.009002
2.777000	0.007687
2.778000	0.022812
2.779000	0.013605
2.780000	0.006700
2.781000	-0.001520
2.782000	-0.008096
2.783000	-0.008096
2.784000	-0.002835
2.785000	-0.005795
2.786000	0.000124
2.787000	0.010646
2.788000	0.012290
2.789000	0.015578
2.790000	0.009002
2.791000	0.003741
2.792000	-0.003164
2.793000	0.003741
2.794000	0.003083
2.795000	-0.001849
2.796000	-0.007768
2.797000	-0.010398
2.798000	-0.015330
2.799000	-0.001191
2.800000	-0.003822
2.801000	-0.009083
2.802000	-0.007439
2.803000	-0.008754
2.804000	-0.004151
2.805000	0.000453
2.806000	-0.001191
2.807000	-0.002507
2.808000	0.008673
2.809000	0.004727
2.810000	0.005056
2.811000	0.002426
2.812000	0.000124
2.813000	0.006371
2.814000	-0.001849
2.815000	-0.005795
2.816000	-0.005466
2.817000	-0.003164
2.818000	-0.003493
2.819000	-0.006781
2.820000	-0.013357
2.821000	-0.020591
2.822000	-0.008754
2.823000	0.001110
2.824000	0.003741
2.825000	0.002426
2.826000	0.001768
2.827000	0.010646
2.828000	0.007687
2.829000	0.003741
2.830000	0.002097
2.831000	0.001768
2.832000	0.002097
2.833000	0.005385
2.834000	-0.001849
2.835000	-0.002835
2.836000	-0.001520
2.837000	-0.001520
2.838000	-0.005795
2.839000	-0.004808
2.840000	-0.004151
2.841000	-0.008096
2.842000	0.001110
2.843000	0.007687
2.844000	-0.000863
2.845000	0.010646
2.846000	0.005714
2.847000	0.006371
2.848000	0.003741
2.849000	0.012619
2.850000	0.006371
2.851000	0.000124
2.852000	-0.007110
2.853000	-0.006781
2.854000	-0.011713
2.855000	-0.005795
2.856000	-0.010398
2.857000	-0.008754
2.858000	-0.011056
2.859000	-0.001191
2.860000	0.004070
2.861000	0.002426
2.862000	0.013605
2.863000	0.009331
2.864000	0.009002
2.865000	0.008015
2.866000	0.001439
2.867000	0.003741
2.868000	0.006371
2.869000	0.000124
2.870000	-0.008096
2.871000	-0.015988
2.872000	0.001439
2.873000	0.008015
2.874000	-0.000863
2.875000	-0.006123
2.876000	-0.015659
2.877000	-0.010069
2.878000	0.009988
2.879000	0.014592
2.880000	0.009331
2.881000	0.022154
2.882000	0.038266
2.883000	0.031032
2.884000	0.016564
2.885000	0.001439
2.886000	-0.000863
2.887000	-0.005795
2.888000	0.000453
2.889000	-0.012042
2.890000	-0.003822
2.891000	0.008344
2.892000	0.002097
2.893000	0.003083
2.894000	0.006371
2.895000	0.002097
2.896000	0.009988
2.897000	0.007687
2.898000	0.001768
2.899000	0.006371
2.900000	0.003741
2.901000	0.006700
2.902000	-0.001191
2.903000	-0.008425
2.904000	-0.004151
2.905000	0.002426
2.906000	-0.011384
2.907000	-0.003493
2.908000	0.006043
2.909000	0.011303
2.910000	0.008673
2.911000	0.007687
2.912000	0.001439
2.913000	-0.013357
2.914000	-0.011384
2.915000	-0.008754
2.916000	-0.002178
2.917000	0.010646
2.918000	-0.003493
2.919000	-0.006781
2.920000	-0.012371
2.921000	-0.015659
2.922000	-0.015988
2.923000	-0.016317
2.924000	-0.017303
2.925000	-0.012042
2.926000	-0.002178
2.927000	0.004070
2.928000	0.004070
2.929000	0.006043
2.930000	-0.000205
2.931000	0.009002
2.932000	0.002754
2.933000	0.004398
2.934000	0.003412
2.935000	0.001439
2.936000	0.002097
2.937000	0.003412
2.938000	-0.009083
2.939000	0.004070
2.940000	-0.004151
2.941000	-0.008096
2.942000	0.004070
2.943000	0.005056
2.944000	0.001768
2.945000	0.007687
2.946000	-0.008754
2.947000	-0.004479
2.948000	-0.009083
2.949000	0.000124
2.950000	0.014920
2.951000	0.017880
2.952000	0.011632
2.953000	0.018866
2.954000	0.013605
2.955000	0.008015
2.956000	-0.000863
2.957000	-0.004808
2.958000	-0.019276
2.959000	-0.019276
2.960000	-0.009083
2.961000	-0.000205
2.962000	0.005056
2.963000	0.001439
2.964000	-0.000534
2.965000	-0.003493
2.966000	-0.006781
2.967000	0.000453
2.968000	0.009002
2.969000	0.003083
2.970000	0.004727
2.971000	0.008673
2.972000	0.010317
2.973000	0.006700
2.974000	0.013605
2.975000	-0.002507
2.976000	-0.008096
2.977000	-0.007768
2.978000	-0.012700
2.979000	-0.004808
2.980000	0.001768
2.981000	-0.002178
2.982000	0.007687
2.983000	0.013276
2.984000	0.014263
2.985000	0.005056
2.986000	-0.003493
2.987000	-0.021578
2.988000	-0.001191
2.989000	0.014920
2.990000	0.015578
2.991000	0.015578
2.992000	0.018537
2.993000	0.003741
2.994000	-0.001191
2.995000	0.006700
2.996000	-0.000534
2.997000	-0.004479
2.998000	-0.009083
2.999000	-0.000863
3.000000	-0.006452
3.001000	-0.006452
3.002000	-0.028154
3.003000	-0.016645
3.004000	-0.010398
3.005000	-0.009740
3.006000	-0.004808
3.007000	-0.000534
3.008000	0.005714
3.009000	0.010646
3.010000	0.023470
3.011000	0.014920
3.012000	0.007687
3.013000	0.003412
3.014000	0.006371
3.015000	0.001768
3.016000	0.000124
3.017000	0.003412
3.018000	-0.005137
3.019000	0.000453
3.020000	0.002754
3.021000	-0.005137
3.022000	-0.000863
3.023000	-0.000863
3.024000	-0.005137
3.025000	-0.004808
3.026000	0.004070
3.027000	0.005056
3.028000	-0.001520
3.029000	-0.005137
3.030000	0.000782
3.031000	-0.000205
3.032000	0.000124
3.033000	0.012619
3.034000	0.001768
3.035000	0.001439
3.036000	-0.001849
3.037000	-0.008754
3.038000	-0.001849
3.039000	-0.003822
3.040000	-0.013686
3.041000	-0.009740
3.042000	-0.013357
3.043000	-0.011056
3.044000	-0.005466
3.045000	-0.002507
3.046000	0.001768
3.047000	0.005056
3.048000	0.006700
3.049000	0.007358
3.050000	0.013934
3.051000	0.015249
3.052000	0.000782
3.053000	0.002426
3.054000	0.006371
3.055000	-0.005137
3.056000	0.008673
3.057000	-0.005137
3.058000	-0.008096
3.059000	-0.004151
3.060000	-0.006123
3.061000	0.007029
3.062000	0.005714
3.063000	-0.002835
3.064000	-0.003822
3.065000	0.006371
3.066000	0.009331
3.067000	-0.002178
3.068000	-0.001520
3.069000	-0.005137
3.070000	-0.012700
3.071000	-0.008754
3.072000	-0.007439
3.073000	-0.007768
3.074000	-0.009740
3.075000	-0.008754
3.076000	0.005385
3.077000	0.011632
3.078000	-0.004151
3.079000	-0.026510
3.080000	-0.011713
3.081000	-0.017632
3.082000	0.000782
3.083000	-0.003493
3.084000	0.000453
3.085000	-0.000205
3.086000	0.020181
3.087000	0.028730
3.088000	0.017551
3.089000	0.013605
3.090000	0.016236
3.091000	0.018537
3.092000	0.018209
3.093000	0.011303
3.094000	0.015249
3.095000	0.009331
3.096000	-0.001849
3.097000	0.000782
3.098000	0.008344
3.099000	-0.014015
3.100000	-0.028154
3.101000	-0.041635
3.102000	-0.020591
3.103000	-0.004479
3.104000	0.013934
3.105000	0.024785
3.106000	0.036622
3.107000	0.033334
3.108000	0.033334
3.109000	0.031690
3.110000	0.016236
3.111000	0.006700
3.112000	0.007029
3.113000	-0.000205
3.114000	-0.013357
3.115000	-0.011056
3.116000	-0.009083
3.117000	-0.010069
3.118000	-0.001191
3.119000	0.006371
3.120000	0.000782
3.121000	-0.008425
3.122000	-0.002507
3.123000	-0.002507
3.124000	-0.008425
3.125000	-0.008096
3.126000	0.004727
3.127000	0.009659
3.128000	0.004398
3.129000	0.005714
3.130000	0.000453
3.131000	-0.009083
3.132000	-0.014344
3.133000	-0.015330
3.134000	-0.001191
3.135000	-0.002178
3.136000	0.002754
3.137000	-0.002507
3.138000	0.001768
3.139000	0.005385
3.140000	0.017222
3.141000	0.016893
3.142000	0.025114
3.143000	0.020181
3.144000	0.019195
3.145000	0.012619
3.146000	-0.001520
3.147000	-0.001191
3.148000	-0.003493
3.149000	-0.011384
3.150000	-0.016645
3.151000	-0.015659
3.152000	-0.012042
3.153000	-0.019605
3.154000	-0.021249
3.155000	-0.006123
3.156000	0.006371
3.157000	0.007358
3.158000	0.015249
3.159000	0.014920
3.160000	0.003083
3.161000	0.008673
3.162000	-0.010069
3.163000	-0.025852
3.164000	-0.016317
3.165000	-0.003164
3.166000	0.007358
3.167000	0.011303
3.168000	0.024127
3.169000	0.005714
3.170000	0.013605
3.171000	0.012948
3.172000	0.007687
3.173000	0.000453
3.174000	-0.009083
3.175000	-0.004479
3.176000	-0.008754
3.177000	-0.004479
3.178000	-0.012700
3.179000	-0.013686
3.180000	-0.012371
3.181000	-0.017632
3.182000	-0.006452
3.183000	0.004727
3.184000	0.001768
3.185000	0.001768
3.186000	0.001768
3.187000	0.006700
3.188000	0.008344
3.189000	0.004398
3.190000	-0.000534
3.191000	0.004727
3.192000	0.001439
3.193000	-0.002178
3.194000	-0.000534
3.195000	0.004727
3.196000	-0.001520
3.197000	-0.010727
3.198000	-0.005466
3.199000	-0.009740
3.200000	-0.014344
3.201000	-0.014673
3.202000	-0.008096
3.203000	-0.006781
3.204000	0.006700
3.205000	0.009988
3.206000	0.002426
3.207000	0.005385
3.208000	0.008015
3.209000	0.011632
3.210000	0.002754
3.211000	0.005714
3.212000	0.001439
3.213000	0.000782
3.214000	0.000124
3.215000	0.004727
3.216000	-0.003164
3.217000	0.003412
3.218000	-0.004479
3.219000	-0.007439
3.220000	-0.010398
3.221000	-0.004151
3.222000	-0.005137
3.223000	-0.006781
3.224000	0.005385
3.225000	0.003741
3.226000	0.009331
3.227000	0.007687
3.228000	0.011632
3.229000	0.009659
3.230000	0.010975
3.231000	0.004070
3.232000	0.000782
3.233000	0.016893
3.234000	0.004727
3.235000	-0.003164
3.236000	0.009331
3.237000	0.008344
3.238000	-0.008754
3.239000	-0.007110
3.240000	0.001110
3.241000	0.001110
3.242000	-0.012042
3.243000	-0.013357
3.244000	0.005385
3.245000	0.011632
3.246000	0.006700
3.247000	0.001110
3.248000	-0.012042
3.249000	0.009002
3.250000	0.010646
3.251000	0.008344
3.252000	0.002754
3.253000	0.001439
3.254000	0.008015
3.255000	0.003083
3.256000	0.008344
3.257000	-0.007110
3.258000	0.001110
3.259000	-0.008754
3.260000	0.003083
3.261000	0.001110
3.262000	0.001439
3.263000	0.004398
3.264000	0.001768
3.265000	-0.005137
3.266000	0.006700
3.267000	0.004398
3.268000	0.003083
3.269000	0.012619
3.270000	0.018209
3.271000	0.026758
3.272000	0.025442
3.273000	0.008344
3.274000	-0.008096
3.275000	-0.003822
3.276000	-0.006781
3.277000	-0.005137
3.278000	-0.004479
3.279000	-0.005137
3.280000	-0.004479
3.281000	-0.010069
3.282000	-0.004479
3.283000	0.002426
3.284000	-0.001520
3.285000	-0.006123
3.286000	0.006043
3.287000	0.011632
3.288000	0.013276
3.289000	0.008344
3.290000	0.007687
3.291000	0.004727
3.292000	0.002426
3.293000	0.013605
3.294000	0.010975
3.295000	0.000782
3.296000	0.001768
3.297000	-0.012042
3.298000	-0.012371
3.299000	-0.018947
3.300000	-0.001849
3.301000	-0.003493
3.302000	0.001768
3.303000	0.007029
3.304000	0.008015
3.305000	0.013605
3.306000	0.009659
3.307000	0.008673
3.308000	0.007029
3.309000	0.000453
3.310000	-0.006781
3.311000	0.003412
3.312000	-0.016645
3.313000	-0.029469
3.314000	-0.006452
3.315000	0.007358
3.316000	0.005385
3.317000	0.010646
3.318000	0.022812
3.319000	0.018537
3.320000	0.011961
3.321000	-0.002178
3.322000	-0.011384
3.323000	-0.005795
3.324000	-0.003822
3.325000	-0.005466
3.326000	0.001110
3.327000	0.001110
3.328000	0.004727
3.329000	0.002426
3.330000	0.007687
3.331000	0.004398
3.332000	0.003083
3.333000	-0.000205
3.334000	-0.019934
3.335000	-0.022235
3.336000	-0.015330
3.337000	-0.009083
3.338000	-0.020591
3.339000	-0.013029
3.340000	-0.011056
3.341000	-0.008425
3.342000	-0.008096
3.343000	-0.005137
3.344000	-0.001191
3.345000	0.001768
3.346000	0.007358
3.347000	0.010975
3.348000	0.008015
3.349000	0.011961
3.350000	0.019195
3.351000	0.022483
3.352000	0.030375
3.353000	0.026429
3.354000	0.020510
3.355000	0.026758
3.356000	0.026100
3.357000	0.006043
3.358000	0.004070
3.359000	0.001439
3.360000	-0.003164
3.361000	-0.008425
3.362000	-0.009412
3.363000	-0.015659
3.364000	-0.014015
3.365000	-0.001520
3.366000	0.009659
3.367000	0.005056
3.368000	-0.006123
3.369000	-0.001191
3.370000	-0.000205
3.371000	-0.006123
3.372000	-0.001191
3.373000	0.000782
3.374000	0.001439
3.375000	-0.003493
3.376000	-0.005795
3.377000	-0.005466
3.378000	-0.000534
3.379000	-0.005795
3.380000	0.001110
3.381000	0.013934
3.382000	0.007687
3.383000	0.009988
3.384000	0.001110
3.385000	-0.004479
3.386000	-0.001191
3.387000	0.010646
3.388000	0.013934
3.389000	0.009002
3.390000	0.004398
3.391000	0.008344
3.392000	0.008344
3.393000	0.009002
3.394000	-0.002835
3.395000	-0.007110
3.396000	-0.003164
3.397000	-0.008096
3.398000	-0.010727
3.399000	-0.012700
3.400000	-0.014344
3.401000	-0.010398
3.402000	-0.004479
3.403000	-0.005137
3.404000	-0.000863
3.405000	-0.000534
3.406000	0.000124
3.407000	0.001110
3.408000	0.002754
3.409000	0.012619
3.410000	0.019524
3.411000	0.015249
3.412000	0.008015
3.413000	-0.002507
3.414000	0.000782
3.415000	-0.000863
3.416000	-0.004479
3.417000	-0.006123
3.418000	-0.003822
3.419000	-0.005466
3.420000	-0.001849
3.421000	-0.006781
3.422000	-0.008425
3.423000	-0.002507
3.424000	-0.015330
3.425000	-0.008096
3.426000	0.001439
3.427000	0.015907
3.428000	0.013605
3.429000	0.023798
3.430000	0.013276
3.431000	0.023798
3.432000	0.016893
3.433000	0.012619
3.434000	0.003741
3.435000	-0.007439
3.436000	-0.010069
3.437000	-0.013686
3.438000	-0.015988
3.439000	-0.004479
3.440000	0.001110
3.441000	0.005385
3.442000	-0.000534
3.443000	0.007687
3.444000	0.003083
3.445000	0.003083
3.446000	0.003741
3.447000	0.004070
3.448000	-0.017632
3.449000	-0.015988
3.450000	0.001768
3.451000	0.009331
3.452000	0.009002
3.453000	0.019195
3.454000	0.025771
3.455000	0.025771
3.456000	0.019853
3.457000	0.003412
3.458000	0.017551
3.459000	0.013605
3.460000	0.001110
3.461000	-0.008754
3.462000	-0.005795
3.463000	0.000124
3.464000	0.005385
3.465000	0.011632
3.466000	0.005056
3.467000	0.010975
3.468000	0.018209
3.469000	0.006043
3.470000	0.002097
3.471000	0.010317
3.472000	0.008673
3.473000	-0.000534
3.474000	-0.008754
3.475000	0.002754
3.476000	-0.010398
3.477000	-0.029798
3.478000	-0.024208
3.479000	-0.018290
3.480000	-0.010398
3.481000	-0.017632
3.482000	-0.020262
3.483000	-0.024537
3.484000	-0.023550
3.485000	-0.007110
3.486000	-0.002178
3.487000	-0.007439
3.488000	-0.010727
3.489000	-0.014015
3.490000	-0.015001
3.491000	-0.007439
3.492000	-0.010398
3.493000	-0.003493
3.494000	0.001768
3.495000	-0.009083
3.496000	-0.005466
3.497000	-0.003164
3.498000	0.002754
3.499000	0.002754
3.500000	-0.003164
3.501000	0.008015
3.502000	0.004398
3.503000	0.008673
3.504000	0.015907
3.505000	0.024127
3.506000	0.024127
3.507000	0.022812
3.508000	0.014592
3.509000	0.019195
3.510000	0.014263
3.511000	0.013605
3.512000	0.014263
3.513000	0.000124
3.514000	0.004398
3.515000	0.005714
3.516000	0.004727
3.517000	-0.000205
3.518000	-0.026839
3.519000	-0.034730
3.520000	-0.001849
3.521000	0.004727
3.522000	-0.000205
3.523000	0.000453
3.524000	0.009988
3.525000	0.015907
3.526000	0.001768
3.527000	-0.000863
3.528000	-0.002178
3.529000	-0.001849
3.530000	0.001768
3.531000	-0.002835
3.532000	0.004727
3.533000	0.001110
3.534000	-0.002835
3.535000	-0.007768
3.536000	-0.007110
3.537000	-0.002835
3.538000	-0.001191
3.539000	-0.001849
3.540000	-0.005795
3.541000	-0.011056
3.542000	-0.003493
3.543000	-0.002178
3.544000	-0.000863
3.545000	-0.000205
3.546000	0.009988
3.547000	0.007029
3.548000	0.003083
3.549000	0.001768
3.550000	0.008015
3.551000	0.006043
3.552000	-0.005466
3.553000	0.003412
3.554000	0.006043
3.555000	0.005056
3.556000	-0.015659
3.557000	-0.012700
3.558000	-0.013686
3.559000	-0.002835
3.560000	-0.002835
3.561000	0.000782
3.562000	0.001110
3.563000	-0.003164
3.564000	-0.014344
3.565000	0.002426
3.566000	0.003083
3.567000	-0.000863
3.568000	0.001439
3.569000	0.011303
3.570000	0.003741
3.571000	0.008344
3.572000	0.009331
3.573000	-0.015001
3.574000	-0.003822
3.575000	0.011303
3.576000	0.016893
3.577000	0.030046
3.578000	0.042212
3.579000	0.032676
3.580000	-0.006123
3.581000	-0.011713
3.582000	-0.017303
3.583000	-0.026510
3.584000	-0.036045
3.585000	-0.036045
3.586000	-0.020920
3.587000	-0.000534
3.588000	-0.005137
3.589000	-0.015001
3.590000	0.003741
3.591000	0.031690
3.592000	0.029059
3.593000	0.023798
3.594000	0.008673
3.595000	0.022812
3.596000	0.023798
3.597000	0.018537
3.598000	0.003083
3.599000	0.009331
3.600000	-0.010398
3.601000	0.007358
3.602000	0.004398
3.603000	0.000782
3.604000	-0.005137
3.605000	-0.003822
3.606000	-0.009740
3.607000	-0.017303
3.608000	-0.028154
3.609000	-0.029469
3.610000	-0.007110
3.611000	0.011303
3.612000	0.018537
3.613000	0.019524
3.614000	0.004070
3.615000	-0.002507
3.616000	0.000453
3.617000	-0.016317
3.618000	-0.022564
3.619000	-0.015330
3.620000	-0.010069
3.621000	-0.008754
3.622000	-0.003164
3.623000	0.004398
3.624000	0.009331
3.625000	0.011632
3.626000	0.013276
3.627000	0.014263
3.628000	0.017222
3.629000	0.010975
3.630000	0.025442
3.631000	0.034320
3.632000	0.031361
3.633000	0.026100
3.634000	0.033334
3.635000	0.030046
3.636000	0.020510
3.637000	0.013605
3.638000	-0.002507
3.639000	-0.020920
3.640000	-0.020920
3.641000	-0.017961
3.642000	-0.010398
3.643000	-0.007110
3.644000	-0.017632
3.645000	0.013276
3.646000	0.039252
3.647000	0.006700
3.648000	-0.032757
3.649000	-0.047554
3.650000	-0.026510
3.651000	0.015907
3.652000	0.109618
3.653000	0.079367
3.654000	-0.011384
3.655000	-0.055116
3.656000	-0.064981
3.657000	-0.025195
3.658000	-0.008425
3.659000	-0.002178
3.660000	0.088574
3.661000	0.174065
3.662000	0.213851
3.663000	0.251007
3.664000	0.271064
3.665000	0.069503
3.666000	-0.071228
3.667000	-0.126140
3.668000	-0.121207
3.669000	-0.144553
3.670000	-0.144224
3.671000	-0.089313
3.672000	-0.051499
3.673000	0.020510
3.674000	0.161241
3.675000	0.230292
3.676000	0.193136
3.677000	0.137567
3.678000	0.085615
3.679000	-0.010727
3.680000	-0.062021
3.681000	-0.086353
3.682000	-0.080764
3.683000	-0.117919
3.684000	-0.077804
3.685000	-0.049855
3.686000	0.007358
3.687000	0.189190
3.688000	0.257912
3.689000	0.235882
3.690000	0.222071
3.691000	0.190834
3.692000	0.051090
3.693000	-0.102136
3.694000	-0.190915
3.695000	-0.312576
3.696000	-0.241881
3.697000	-0.152116
3.698000	-0.227413
3.699000	-0.246156
3.700000	-0.115946
3.701000	0.021497
3.702000	0.149075
3.703000	0.181957
3.704000	0.208590
3.705000	0.219112
3.706000	0.136581
3.707000	-0.122194
3.708000	-0.215247
3.709000	-0.182038
3.710000	-0.107397
3.711000	-0.269830
3.712000	-0.242868
3.713000	0.008673
3.714000	0.305918
3.715000	0.434812
3.716000	0.210563
3.717000	0.019853
3.718000	0.127703
3.719000	0.043856
3.720000	-0.175461
3.721000	-0.165926
3.722000	-0.133373
3.723000	-0.199465
3.724000	-0.109041
3.725000	0.105672
3.726000	0.151377
3.727000	-0.058733
3.728000	-0.095889
3.729000	-0.088655
3.730000	-0.195848
3.731000	-0.291203
3.732000	-0.185983
3.733000	-0.102794
3.734000	-0.303040
3.735000	-0.501313
3.736000	-0.413849
3.737000	-0.205712
3.738000	-0.045581
3.739000	0.129347
3.740000	0.080354
3.741000	0.242458
3.742000	0.258241
3.743000	0.117510
3.744000	-0.243854
3.745000	-0.322769
3.746000	-0.166912
3.747000	-0.126797
3.748000	0.100411
3.749000	0.280600
3.750000	0.229305
3.751000	0.136581
3.752000	-0.120221
3.753000	-0.328687
3.754000	-0.492764
3.755000	-0.499340
3.756000	-0.631194
3.757000	-0.251088
3.758000	0.229634
3.759000	0.363460
3.760000	0.350637
3.761000	0.644594
3.762000	0.578503
3.763000	-0.069913
3.764000	-0.518083
3.765000	-0.600943
3.766000	-0.596997
3.767000	-0.557540
3.768000	-0.194532
3.769000	0.096137
3.770000	0.415412
3.771000	0.518330
3.772000	0.516686
3.773000	0.404562
3.774000	0.058652
3.775000	-0.389189
3.776000	-0.495395
3.777000	-0.298766
3.778000	-0.362884
3.779000	-0.495723
3.780000	-0.306328
3.781000	-0.128441
3.782000	0.252651
3.783000	0.428236
3.784000	0.572255
3.785000	0.626509
3.786000	0.382531
3.787000	-0.099506
3.788000	-0.490134
3.789000	-0.872541
3.790000	-0.746278
3.791000	-0.674268
3.792000	-0.153431
3.793000	0.233580
3.794000	0.674187
3.795000	0.615987
3.796000	0.348335
3.797000	0.222400
3.798000	0.018866
3.799000	-0.120550
3.800000	-0.179078
3.801000	-0.100821
3.802000	0.019195
3.803000	0.019524
3.804000	-0.035717
3.805000	-0.017632
3.806000	-0.020591
3.807000	-0.352362
3.808000	-0.545374
3.809000	-0.523344
3.810000	-0.247471
3.811000	0.012948
3.812000	0.231936
3.813000	0.454870
3.814000	0.412453
3.815000	0.044513
3.816000	-0.177105
3.817000	-0.314877
3.818000	-0.138634
3.819000	-0.387873
3.820000	-0.476324
3.821000	-0.430290
3.822000	-0.156390
3.823000	0.264488
3.824000	0.617960
3.825000	0.811301
3.826000	0.634730
3.827000	0.234895
3.828000	-0.017632
3.829000	-0.279366
3.830000	-0.471063
3.831000	-0.586147
3.832000	-0.425029
3.833000	0.051090
3.834000	-0.168556
3.835000	-0.454293
3.836000	-0.148499
3.837000	-0.033744
3.838000	0.160255
3.839000	0.379901
3.840000	0.357542
3.841000	0.333538
3.842000	0.077395
3.843000	-0.035717
3.844000	-0.029798
3.845000	-0.267857
3.846000	-0.155733
3.847000	0.017880
3.848000	-0.051171
3.849000	0.175380
3.850000	0.425277
3.851000	0.574557
3.852000	0.456843
3.853000	-0.307315
3.854000	-0.690709
3.855000	-0.310603
3.856000	-0.130085
3.857000	0.306247
3.858000	0.626509
3.859000	0.903368
3.860000	0.646567
3.861000	0.043198
3.862000	-0.770610
3.863000	-1.131974
3.864000	-0.570692
3.865000	-0.140278
3.866000	0.143157
3.867000	0.309864
3.868000	0.419029
3.869000	0.411796
3.870000	0.298027
3.871000	0.219112
3.872000	0.328278
3.873000	0.251664
3.874000	0.454212
3.875000	0.378257
3.876000	-0.004151
3.877000	-0.339867
3.878000	-0.561486
3.879000	-0.601601
3.880000	-0.441798
3.881000	-0.269830
3.882000	-0.277064
3.883000	-0.349074
3.884000	-0.082737
3.885000	0.299342
3.886000	0.630784
3.887000	0.878050
3.888000	0.834647
3.889000	0.172421
3.890000	-0.281339
3.891000	-0.419110
3.892000	-0.194861
3.893000	0.240156
3.894000	0.189848
3.895000	-0.039333
3.896000	-0.341182
3.897000	-0.461198
3.898000	-0.374063
3.899000	-0.095889
3.900000	-0.040977
3.901000	0.161570
3.902000	0.191163
3.903000	0.421002
3.904000	0.496629
3.905000	0.574557
3.906000	0.209248
3.907000	-0.284298
3.908000	-0.567076
3.909000	-0.727864
3.910000	-0.283311
3.911000	-0.021906
3.912000	0.035307
3.913000	0.061612
3.914000	0.060296
3.915000	0.057337
3.916000	-0.013357
3.917000	-0.041964
3.918000	-0.011056
3.919000	-0.049198
3.920000	0.017222
3.921000	0.263502
3.922000	0.180970
3.923000	-0.003822
3.924000	-0.104438
3.925000	-0.104767
3.926000	-0.148828
3.927000	0.019195
3.928000	0.103371
3.929000	0.092849
3.930000	-0.176777
3.931000	-0.382284
3.932000	-0.209329
3.933000	0.321044
3.934000	0.702793
3.935000	0.672214
3.936000	0.257254
3.937000	-0.060377
3.938000	-0.025852
3.939000	-0.115618
3.940000	-0.243854
3.941000	-0.315206
3.942000	-0.256678
3.943000	-0.015330
3.944000	0.039910
3.945000	0.178668
3.946000	0.190506
3.947000	0.001768
3.948000	-0.056103
3.949000	-0.086353
3.950000	-0.050184
3.951000	-0.055116
3.952000	-0.042950
3.953000	0.037608
3.954000	0.537073
3.955000	0.587710
3.956000	0.605137
3.957000	0.202014
3.958000	-0.179407
3.959000	-0.486517
3.960000	-0.281667
3.961000	0.005385
3.962000	0.210234
3.963000	0.456185
3.964000	0.377928
3.965000	0.386477
3.966000	0.168475
3.967000	-0.080435
3.968000	-0.145868
3.969000	-0.260623
3.970000	-0.184339
3.971000	-0.113974
3.972000	-0.296464
3.973000	-0.691037
3.974000	-0.479283
3.975000	0.049446
3.976000	0.757376
3.977000	0.953676
3.978000	0.525235
3.979000	0.160255
3.980000	-0.278708
3.981000	-0.494408
3.982000	-0.335592
3.983000	-0.130085
3.984000	0.113564
3.985000	0.091533
3.986000	-0.026839
3.987000	-0.013686
3.988000	-0.067940
3.989000	-0.286599
3.990000	-0.231359
3.991000	-0.024866
3.992000	0.352610
3.993000	0.579489
3.994000	0.386477
3.995000	0.192150
3.996000	0.202014
3.997000	0.045829
3.998000	-0.012042
3.999000	-0.100821
4.000000	-0.198478
4.001000	-0.355321
4.002000	-0.741674
4.003000	-0.597655
4.004000	-0.278050
4.005000	0.187875
4.006000	0.432182
4.007000	0.487422
4.008000	0.254295
4.009000	0.260214
4.010000	0.422975
4.011000	0.296712
4.012000	0.079039
4.013000	-0.119892
4.014000	-0.247800
4.015000	-0.335264
4.016000	-0.339867
4.017000	-0.268186
4.018000	-0.229386
4.019000	-0.093587
4.020000	0.235882
4.021000	0.413111
4.022000	0.517015
4.023000	0.627167
4.024000	0.513398
4.025000	-0.079120
4.026000	-0.440483
4.027000	-0.527289
4.028000	-0.289559
4.029000	-0.034072
4.030000	-0.013357
4.031000	0.007687
4.032000	0.085944
4.033000	0.063256
4.034000	-0.024537
4.035000	-0.199793
4.036000	-0.351375
4.037000	-0.295149
4.038000	-0.047883
4.039000	0.284546
4.040000	0.223058
4.041000	0.365762
4.042000	0.402260
4.043000	0.335840
4.044000	0.068845
4.045000	-0.440812
4.046000	-0.676899
4.047000	-0.373406
4.048000	0.074764
4.049000	0.618947
4.050000	0.497944
4.051000	0.161570
4.052000	-0.158692
4.053000	-0.374392
4.054000	-0.038347
4.055000	0.132635
4.056000	0.253637
4.057000	0.429223
4.058000	0.321701
4.059000	0.008344
4.060000	-0.235634
4.061000	-0.410233
4.062000	-0.240237
4.063000	0.198726
4.064000	0.243115
4.065000	0.150062
4.066000	-0.061693
4.067000	-0.262925
4.068000	-0.160007
4.069000	-0.157705
4.070000	-0.258979
4.071000	-0.534194
4.072000	-0.335592
4.073000	0.040239
4.074000	0.194123
4.075000	0.178340
4.076000	0.184916
4.077000	0.323674
4.078000	0.731071
4.079000	0.742580
4.080000	0.566666
4.081000	0.081340
4.082000	-0.247800
4.083000	-0.281010
4.084000	-0.333948
4.085000	-0.320796
4.086000	-0.130085
4.087000	-0.266213
4.088000	-0.124167
4.089000	-0.172831
4.090000	-0.337565
4.091000	-0.206698
4.092000	0.143814
4.093000	0.425934
4.094000	0.501561
4.095000	0.302959
4.096000	0.285861
4.097000	0.445663
4.098000	0.091862
4.099000	-0.181380
4.100000	-0.347758
4.101000	-0.167241
4.102000	0.219441
4.103000	0.261200
4.104000	-0.088655
4.105000	-0.285284
4.106000	-0.406287
4.107000	-0.362226
4.108000	-0.193875
4.109000	0.181628
4.110000	0.465721
4.111000	0.325976
4.112000	-0.045910
4.113000	-0.223139
4.114000	-0.214919
4.115000	-0.385572
4.116000	-0.287586
4.117000	-0.123509
4.118000	-0.067282
4.119000	0.062927
4.120000	0.304603
4.121000	0.434812
4.122000	0.429880
4.123000	0.425934
4.124000	0.296054
4.125000	0.171106
4.126000	0.044185
4.127000	-0.052486
4.128000	-0.000534
4.129000	-0.270817
4.130000	-0.413192
4.131000	-0.295806
4.132000	-0.190258
4.133000	-0.048869
4.134000	-0.126797
4.135000	0.064900
4.136000	0.105672
4.137000	0.148747
4.138000	0.105015
4.139000	-0.073859
4.140000	-0.244512
4.141000	-0.201766
4.142000	-0.097862
4.143000	0.211221
4.144000	0.080354
4.145000	-0.018947
4.146000	0.097123
4.147000	0.411467
4.148000	0.439087
4.149000	0.329264
4.150000	0.101398
4.151000	-0.217878
4.152000	-0.378995
4.153000	-0.135675
4.154000	-0.106411
4.155000	-0.197820
4.156000	-0.158692
4.157000	-0.132058
4.158000	-0.099506
4.159000	-0.008096
4.160000	0.204973
4.161000	0.252651
4.162000	0.263502
4.163000	-0.004808
4.164000	-0.186970
4.165000	-0.093587
4.166000	-0.150472
4.167000	-0.000534
4.168000	0.087259
4.169000	-0.005795
4.170000	0.015907
4.171000	-0.033744
4.172000	-0.001191
4.173000	0.188204
4.174000	0.101069
4.175000	-0.014344
4.176000	-0.328359
4.177000	-0.450348
4.178000	-0.334935
4.179000	-0.150143
4.180000	0.187217
4.181000	0.487422
4.182000	0.533127
4.183000	0.369379
4.184000	0.182943
4.185000	-0.075174
4.186000	-0.175461
4.187000	-0.257993
4.188000	-0.253390
4.189000	-0.183682
4.190000	0.010317
4.191000	0.057008
4.192000	-0.012371
4.193000	0.049774
4.194000	0.014592
4.195000	0.021497
4.196000	0.000453
4.197000	-0.020262
4.198000	-0.018290
4.199000	-0.030456
4.200000	-0.001191
4.201000	0.002754
4.202000	0.009331
4.203000	0.006371
4.204000	0.027744
4.205000	0.006371
4.206000	0.000782
4.207000	0.003412
4.208000	0.019524
4.209000	0.040568
4.210000	-0.015001
4.211000	-0.009740
4.212000	-0.003822
4.213000	-0.004479
4.214000	0.009331
4.215000	0.014920
4.216000	0.021168
4.217000	-0.016317
4.218000	-0.017961
4.219000	-0.050842
4.220000	-0.018618
4.221000	-0.016645
4.222000	-0.006452
4.223000	-0.004808
4.224000	-0.003822
4.225000	-0.027825
4.226000	-0.042950
4.227000	-0.023879
4.228000	-0.018947
4.229000	-0.008754
4.230000	-0.011384
4.231000	-0.010069
4.232000	-0.024866
4.233000	-0.035059
4.234000	-0.031442
4.235000	-0.015988
4.236000	-0.010398
4.237000	-0.014015
4.238000	-0.026181
4.239000	-0.028483
4.240000	-0.022235
4.241000	-0.023222
4.242000	-0.023222
4.243000	-0.018947
4.244000	-0.006123
4.245000	0.000124
4.246000	-0.011384
4.247000	-0.000863
4.248000	-0.003493
4.249000	-0.029469
4.250000	-0.018947
4.251000	0.001768
4.252000	0.019195
4.253000	-0.003164
4.254000	-0.023879
4.255000	-0.034730
4.256000	-0.020591
4.257000	-0.026510
4.258000	-0.021249
4.259000	-0.018618
4.260000	-0.009412
4.261000	-0.063994
4.262000	-0.018290
4.263000	0.010975
4.264000	0.013605
4.265000	0.033334
4.266000	0.019853
4.267000	0.012948
4.268000	0.020839
4.269000	0.024785
4.270000	0.018209
4.271000	0.006043
4.272000	0.006700
4.273000	0.011303
4.274000	0.008344
4.275000	0.005714
4.276000	-0.002178
4.277000	0.014920
4.278000	0.010975
4.279000	0.009331
4.280000	0.006043
4.281000	0.001768
4.282000	0.005056
4.283000	0.006700
4.284000	0.000782
4.285000	0.018537
4.286000	0.014263
4.287000	0.010646
4.288000	0.018209
4.289000	0.015249
4.290000	0.030703
4.291000	0.009331
4.292000	-0.024866
4.293000	-0.005137
4.294000	0.017551
4.295000	-0.004479
4.296000	-0.006452
4.297000	-0.006781
4.298000	0.001439
4.299000	-0.000863
4.300000	0.016236
4.301000	0.022483
4.302000	0.023470
4.303000	0.004727
4.304000	-0.001849
4.305000	-0.002178
4.306000	0.006043
4.307000	0.011632
4.308000	0.019853
4.309000	0.046486
4.310000	0.053391
4.311000	0.033991
4.312000	0.021168
4.313000	0.039581
4.314000	0.024785
4.315000	0.019853
4.316000	0.018209
4.317000	0.004398
4.318000	0.010317
4.319000	0.021497
4.320000	0.022812
4.321000	0.035636
4.322000	0.038595
4.323000	0.064571
4.324000	0.052734
4.325000	0.047802
4.326000	0.028730
4.327000	0.015907
4.328000	0.034649
4.329000	0.067859
4.330000	0.060296
4.331000	0.060954
4.332000	0.055364
4.333000	0.057995
4.334000	0.060296
4.335000	0.064242
4.336000	0.064900
4.337000	0.057337
4.338000	0.068188
4.339000	0.045500
4.340000	0.037937
4.341000	0.039252
4.342000	0.027415
4.343000	0.029388
4.344000	0.037280
4.345000	0.039910
4.346000	0.035307
4.347000	0.037608
4.348000	0.042212
4.349000	0.036951
4.350000	0.034978
4.351000	0.025771
4.352000	0.030046
4.353000	0.027086
4.354000	0.031361
4.355000	0.019524
4.356000	0.028073
4.357000	0.024127
4.358000	0.023470
4.359000	0.033005
4.360000	0.021825
4.361000	0.030046
4.362000	0.016236
4.363000	0.025771
4.364000	0.035964
4.365000	0.031361
4.366000	0.055693
4.367000	0.059639
4.368000	0.074764
4.369000	0.076079
4.370000	0.094164
4.371000	0.038924
4.372000	0.008344
4.373000	-0.018618
4.374000	-0.023222
4.375000	-0.002178
4.376000	0.018209
4.377000	0.048130
4.378000	0.079039
4.379000	0.075093
4.380000	0.040568
4.381000	0.035307
4.382000	-0.017632
4.383000	-0.046238
4.384000	-0.031113
4.385000	-0.045910
4.386000	-0.012042
4.387000	-0.050184
4.388000	-0.049855
4.389000	-0.019934
4.390000	-0.027167
4.391000	-0.029140
4.392000	-0.062350
4.393000	-0.106740
4.394000	-0.084381
4.395000	-0.046896
4.396000	-0.017632
4.397000	0.021497
4.398000	0.068517
4.399000	0.068188
4.400000	0.064242
4.401000	0.057995
4.402000	0.023470
4.403000	0.002097
4.404000	0.007687
4.405000	0.070818
4.406000	0.141184
4.407000	0.185902
4.408000	0.073778
4.409000	-0.032428
4.410000	-0.102465
4.411000	-0.159021
4.412000	-0.188285
4.413000	-0.203081
4.414000	-0.194204
4.415000	-0.196505
4.416000	-0.172173
4.417000	-0.164611
4.418000	-0.180722
4.419000	-0.179078
4.420000	-0.163295
4.421000	-0.140607
4.422000	-0.102136
4.423000	-0.048869
4.424000	-0.020262
4.425000	0.012619
4.426000	0.047473
4.427000	0.055364
4.428000	0.064571
4.429000	0.043527
4.430000	0.043856
4.431000	0.036293
4.432000	0.059968
4.433000	0.057995
4.434000	0.077395
4.435000	0.040568
4.436000	0.033005
4.437000	0.015907
4.438000	0.000453
4.439000	-0.014344
4.440000	-0.025852
4.441000	-0.013686
4.442000	-0.020591
4.443000	-0.002507
4.444000	0.014592
4.445000	0.012290
4.446000	0.011303
4.447000	-0.007439
4.448000	-0.008096
4.449000	-0.036045
4.450000	0.001110
4.451000	-0.023550
4.452000	-0.013357
4.453000	-0.019934
4.454000	-0.032100
4.455000	-0.041635
4.456000	-0.047225
4.457000	-0.048211
4.458000	-0.050184
4.459000	-0.031113
4.460000	-0.035388
4.461000	-0.041635
4.462000	-0.021249
4.463000	-0.023879
4.464000	0.001768
4.465000	0.037937
4.466000	0.034649
4.467000	0.018209
4.468000	0.016893
4.469000	0.019195
4.470000	0.008015
4.471000	-0.002507
4.472000	-0.001191
4.473000	0.001768
4.474000	-0.005466
4.475000	-0.011056
4.476000	-0.005466
4.477000	-0.014673
4.478000	-0.018290
4.479000	-0.027496
4.480000	-0.032757
4.481000	-0.020262
4.482000	-0.015330
4.483000	-0.010069
4.484000	-0.022235
4.485000	-0.015659
4.486000	-0.015659
4.487000	-0.014344
4.488000	-0.005466
4.489000	-0.009412
4.490000	-0.007768
4.491000	-0.015659
4.492000	-0.025852
4.493000	-0.036374
4.494000	-0.042950
4.495000	-0.054788
4.496000	-0.059391
4.497000	-0.061035
4.498000	-0.061693
4.499000	-0.071557
4.500000	-0.079120
4.501000	-0.080435
4.502000	-0.076489
4.503000	-0.069255
4.504000	-0.066625
4.505000	-0.068269
4.506000	-0.058404
4.507000	-0.059720
4.508000	-0.052486
4.509000	-0.054459
4.510000	-0.050842
4.511000	-0.053801
4.512000	-0.060377
4.513000	-0.063665
4.514000	-0.066625
4.515000	-0.077804
4.516000	-0.074845
4.517000	-0.072872
4.518000	-0.076489
4.519000	-0.084381
4.520000	-0.071557
4.521000	-0.068269
4.522000	-0.050513
4.523000	-0.042622
4.524000	-0.040977
4.525000	-0.039005
4.526000	-0.029469
4.527000	-0.014673
4.528000	-0.018290
4.529000	-0.006781
4.530000	-0.008096
4.531000	-0.003164
4.532000	0.002426
4.533000	0.005056
4.534000	0.011632
4.535000	0.013605
4.536000	0.002754
4.537000	-0.002507
4.538000	-0.007110
4.539000	-0.012700
4.540000	0.002426
4.541000	0.002097
4.542000	0.007029
4.543000	0.022483
4.544000	0.039910
4.545000	0.037608
4.546000	0.038924
4.547000	0.038266
4.548000	0.041225
4.549000	0.040239
4.550000	0.053063
4.551000	0.055364
4.552000	0.046157
4.553000	0.059310
4.554000	0.076737
4.555000	0.081011
4.556000	0.073120
4.557000	0.067859
4.558000	0.076079
4.559000	0.071476
4.560000	0.068188
4.561000	0.075750
4.562000	0.082656
4.563000	0.060625
4.564000	0.061283
4.565000	0.082656
4.566000	0.095479
4.567000	0.087588
4.568000	0.083971
4.569000	0.088245
4.570000	0.078710
4.571000	0.066544
4.572000	0.071147
4.573000	0.069503
4.574000	0.058652
4.575000	0.054707
4.576000	0.052734
4.577000	0.046157
4.578000	0.054378
4.579000	0.056022
4.580000	0.062598
4.581000	0.045171
4.582000	0.046815
4.583000	0.064900
4.584000	0.070818
4.585000	0.064242
4.586000	0.061612
4.587000	0.066215
4.588000	0.065886
4.589000	0.057008
4.590000	0.045500
4.591000	0.036622
4.592000	0.049774
4.593000	0.031361
4.594000	0.034649
4.595000	0.039581
4.596000	0.033991
4.597000	0.029388
4.598000	0.027086
4.599000	0.024785
4.600000	0.026758
4.601000	0.028402
4.602000	0.005056
4.603000	0.003412
4.604000	0.000782
4.605000	0.006043
4.606000	0.002754
4.607000	-0.022893
4.608000	-0.017632
4.609000	-0.009412
4.610000	-0.030127
4.611000	-0.022564
4.612000	-0.020920
4.613000	-0.016317
4.614000	-0.030456
4.615000	-0.013357
4.616000	-0.030456
4.617000	-0.036703
4.618000	-0.030127
4.619000	-0.031113
4.620000	-0.047225
4.621000	-0.043608
4.622000	-0.044594
4.623000	-0.040649
4.624000	-0.034401
4.625000	-0.033086
4.626000	-0.032428
4.627000	-0.023550
4.628000	-0.027496
4.629000	-0.036045
4.630000	-0.015988
4.631000	-0.019934
4.632000	-0.023550
4.633000	-0.023550
4.634000	-0.010727
4.635000	-0.006452
4.636000	-0.005137
4.637000	-0.010727
4.638000	-0.016317
4.639000	-0.012700
4.640000	-0.004479
4.641000	-0.022235
4.642000	-0.025195
4.643000	-0.016974
4.644000	0.008673
4.645000	0.025771
4.646000	0.028073
4.647000	0.033005
4.648000	0.043856
4.649000	0.039910
4.650000	0.021497
4.651000	0.024785
4.652000	0.015578
4.653000	0.017551
4.654000	0.010646
4.655000	0.014263
4.656000	0.013276
4.657000	-0.002178
4.658000	-0.011384
4.659000	0.000124
4.660000	-0.005137
4.661000	-0.002835
4.662000	0.016236
4.663000	0.009988
4.664000	0.019853
4.665000	0.025442
4.666000	-0.005795
4.667000	0.018866
4.668000	0.035636
4.669000	0.020181
4.670000	0.016236
4.671000	-0.003493
4.672000	-0.008754
4.673000	-0.003164
4.674000	0.002754
4.675000	-0.008096
4.676000	-0.020920
4.677000	-0.011713
4.678000	-0.010069
4.679000	-0.013029
4.680000	-0.024208
4.681000	-0.033744
4.682000	-0.016317
4.683000	-0.025523
4.684000	-0.030127
4.685000	-0.016974
4.686000	-0.009083
4.687000	-0.006781
4.688000	0.009002
4.689000	-0.005137
4.690000	-0.008754
4.691000	-0.027496
4.692000	-0.018947
4.693000	-0.030456
4.694000	-0.021906
4.695000	-0.019605
4.696000	-0.031771
4.697000	-0.031442
4.698000	-0.059062
4.699000	-0.045581
4.700000	-0.044266
4.701000	-0.034072
4.702000	-0.037689
4.703000	-0.024866
4.704000	-0.019605
4.705000	-0.027496
4.706000	-0.012371
4.707000	-0.010727
4.708000	-0.007110
4.709000	-0.017303
4.710000	-0.012700
4.711000	-0.011056
4.712000	-0.006123
4.713000	-0.018290
4.714000	-0.016645
4.715000	-0.015988
4.716000	-0.018290
4.717000	-0.037689
4.718000	-0.030456
4.719000	-0.033744
4.720000	-0.033415
4.721000	-0.040649
4.722000	-0.029140
4.723000	-0.026839
4.724000	-0.025852
4.725000	-0.026181
4.726000	-0.014673
4.727000	-0.017961
4.728000	-0.021249
4.729000	-0.015659
4.730000	-0.016974
4.731000	-0.017961
4.732000	-0.016317
4.733000	-0.009740
4.734000	-0.001520
4.735000	-0.012371
4.736000	-0.016317
4.737000	-0.023222
4.738000	-0.022235
4.739000	-0.020920
4.740000	-0.020591
4.741000	-0.028154
4.742000	-0.015988
4.743000	-0.011384
4.744000	-0.012371
4.745000	0.003741
4.746000	0.004727
4.747000	0.004727
4.748000	0.009002
4.749000	0.012619
4.750000	0.003083
4.751000	-0.001191
4.752000	-0.000534
4.753000	0.002754
4.754000	-0.000534
4.755000	-0.011056
4.756000	-0.015001
4.757000	-0.014015
4.758000	-0.024537
4.759000	-0.012700
4.760000	-0.013686
4.761000	-0.011713
4.762000	-0.003493
4.763000	0.006043
4.764000	-0.006452
4.765000	0.005385
4.766000	0.011303
4.767000	0.012948
4.768000	0.007029
4.769000	0.003741
4.770000	0.002426
4.771000	0.015907
4.772000	-0.002178
4.773000	0.002097
4.774000	0.003741
4.775000	0.013934
4.776000	0.013276
4.777000	0.020510
4.778000	0.015907
4.779000	0.009002
4.780000	0.028730
4.781000	0.004727
4.782000	0.010317
4.783000	0.030375
4.784000	0.029717
4.785000	0.021497
4.786000	0.017880
4.787000	0.028073
4.788000	0.031032
4.789000	0.018209
4.790000	0.015249
4.791000	0.015249
4.792000	0.027086
4.793000	0.025114
4.794000	0.005385
4.795000	0.028402
4.796000	0.033663
4.797000	0.012290
4.798000	-0.000863
4.799000	0.028073
4.800000	0.016564
4.801000	0.008673
4.802000	0.019195
4.803000	0.026429
4.804000	0.009659
4.805000	0.034978
4.806000	0.043856
4.807000	0.070161
4.808000	0.064242
4.809000	0.063913
4.810000	0.060954
4.811000	0.059968
4.812000	0.051418
4.813000	0.031361
4.814000	0.033663
4.815000	0.029388
4.816000	0.024785
4.817000	0.026429
4.818000	0.025771
4.819000	0.015578
4.820000	0.022483
4.821000	0.012290
4.822000	-0.001520
4.823000	0.027744
4.824000	0.018209
4.825000	0.021825
4.826000	0.021497
4.827000	0.032019
4.828000	0.027086
4.829000	0.020839
4.830000	0.029717
4.831000	0.032019
4.832000	0.024785
4.833000	0.014920
4.834000	0.016893
4.835000	0.004727
4.836000	0.004070
4.837000	-0.004151
4.838000	-0.004479
4.839000	-0.011713
4.840000	0.006043
4.841000	-0.010069
4.842000	-0.026839
4.843000	-0.007768
4.844000	0.004070
4.845000	-0.000863
4.846000	0.005385
4.847000	0.006371
4.848000	0.024456
4.849000	0.018209
4.850000	0.017551
4.851000	0.020181
4.852000	0.012948
4.853000	0.009988
4.854000	0.005056
4.855000	0.009659
4.856000	0.009988
4.857000	0.006043
4.858000	0.012290
4.859000	-0.002507
4.860000	0.002097
4.861000	-0.004479
4.862000	-0.002507
4.863000	-0.012371
4.864000	-0.000534
4.865000	-0.002507
4.866000	-0.002507
4.867000	-0.003164
4.868000	-0.006452
4.869000	0.004727
4.870000	0.004727
4.871000	0.005385
4.872000	0.000124
4.873000	0.000124
4.874000	-0.007439
4.875000	-0.007768
4.876000	0.004398
4.877000	-0.019605
4.878000	-0.023879
4.879000	-0.019934
4.880000	-0.011384
4.881000	-0.006452
4.882000	-0.008754
4.883000	-0.011384
4.884000	-0.001520
4.885000	0.000124
4.886000	0.006700
4.887000	0.000453
4.888000	0.002097
4.889000	0.012290
4.890000	-0.009083
4.891000	-0.015659
4.892000	-0.015330
4.893000	-0.011384
4.894000	-0.012371
4.895000	-0.013357
4.896000	-0.009412
4.897000	-0.008754
4.898000	0.000124
4.899000	-0.006781
4.900000	0.003741
4.901000	0.009002
4.902000	-0.005795
4.903000	-0.002507
4.904000	0.003412
4.905000	0.001439
4.906000	-0.003822
4.907000	-0.002507
4.908000	0.003412
4.909000	0.005714
4.910000	0.014263
4.911000	-0.001191
4.912000	-0.016974
4.913000	-0.006781
4.914000	-0.002178
4.915000	-0.004151
4.916000	0.000453
4.917000	-0.011384
4.918000	-0.012042
4.919000	-0.010069
4.920000	-0.025195
4.921000	-0.007439
4.922000	0.002426
4.923000	-0.000534
4.924000	-0.005466
4.925000	-0.003164
4.926000	-0.004151
4.927000	-0.001191
4.928000	-0.013357
4.929000	-0.017961
4.930000	-0.013357
4.931000	0.005714
4.932000	0.009659
4.933000	-0.001191
4.934000	-0.003164
4.935000	-0.006452
4.936000	0.000782
4.937000	-0.006452
4.938000	-0.008425
4.939000	-0.011056
4.940000	-0.007439
4.941000	-0.017961
4.942000	-0.030456
4.943000	-0.020591
4.944000	-0.010727
4.945000	0.006371
4.946000	-0.001849
4.947000	0.003412
4.948000	0.001768
4.949000	0.009002
4.950000	0.003083
4.951000	-0.003822
4.952000	-0.005795
4.953000	-0.006781
4.954000	-0.001191
4.955000	-0.003493
4.956000	-0.009740
4.957000	-0.000863
4.958000	-0.001849
4.959000	-0.009083
4.960000	-0.013686
4.961000	-0.009412
4.962000	-0.008425
4.963000	-0.006452
4.964000	-0.009412
4.965000	-0.007110
4.966000	0.007687
4.967000	-0.001849
4.968000	0.005714
4.969000	-0.000205
4.970000	-0.013029
4.971000	-0.002507
4.972000	0.006043
4.973000	0.005714
4.974000	-0.000863
4.975000	0.006371
4.976000	-0.014344
4.977000	-0.006123
4.978000	-0.015988
4.979000	-0.006781
4.980000	-0.007110
4.981000	-0.007439
4.982000	-0.001191
4.983000	-0.008754
4.984000	-0.008754
4.985000	0.001768
4.986000	0.002754
4.987000	0.002097
4.988000	0.007029
4.989000	0.010317
4.990000	0.013934
4.991000	0.013276
4.992000	0.010317
4.993000	-0.000534
4.994000	0.008673
4.995000	0.003083
4.996000	-0.001191
4.997000	-0.010069
4.998000	-0.005466
4.999000	-0.002178
5.000000	-0.010727
5.001000	-0.011384
5.002000	0.000453
5.003000	-0.001849
5.004000	-0.005137
5.005000	0.002754
5.006000	0.000453
5.007000	0.004398
5.008000	0.003741
5.009000	0.006371
5.010000	0.015249
5.011000	0.018537
5.012000	0.010975
5.013000	0.011961
5.014000	0.003412
5.015000	-0.003822
5.016000	0.001439
5.017000	-0.002507
5.018000	-0.015001
5.019000	-0.012371
5.020000	-0.002507
5.021000	-0.003493
5.022000	0.006700
5.023000	-0.009083
5.024000	0.005056
5.025000	-0.004151
5.026000	0.004727
5.027000	-0.002178
5.028000	-0.004151
5.029000	0.011303
5.030000	0.019195
5.031000	-0.007439
5.032000	-0.002178
5.033000	-0.004151
5.034000	0.008673
5.035000	0.008344
5.036000	-0.008096
5.037000	-0.005795
5.038000	0.000124
5.039000	-0.008754
5.040000	-0.016317
5.041000	-0.009412
5.042000	0.001768
5.043000	0.004727
5.044000	0.010646
5.045000	0.003083
5.046000	0.001439
5.047000	0.001768
5.048000	0.006371
5.049000	0.013276
5.050000	0.005714
5.051000	0.011961
5.052000	0.005385
5.053000	-0.004479
5.054000	0.004398
5.055000	-0.002507
5.056000	0.005056
5.057000	-0.004151
5.058000	-0.002507
5.059000	-0.004151
5.060000	-0.007110
5.061000	-0.003822
5.062000	-0.001849
5.063000	-0.000534
5.064000	0.012948
5.065000	-0.006123
5.066000	0.006371
5.067000	0.006043
5.068000	0.001439
5.069000	0.004398
5.070000	0.002754
5.071000	0.006700
5.072000	-0.004151
5.073000	0.001439
5.074000	0.002097
5.075000	0.000782
5.076000	-0.009412
5.077000	-0.015330
5.078000	-0.002178
5.079000	0.002754
5.080000	-0.001520
5.081000	0.004070
5.082000	-0.004151
5.083000	0.002097
5.084000	0.007358
5.085000	0.007029
5.086000	0.009988
5.087000	0.006371
5.088000	0.002097
5.089000	-0.010069
5.090000	0.002754
5.091000	0.008344
5.092000	-0.001191
5.093000	-0.002507
5.094000	-0.014015
5.095000	-0.000534
5.096000	-0.019934
5.097000	-0.011384
5.098000	-0.015988
5.099000	-0.011384
5.100000	-0.011056
5.101000	-0.007110
5.102000	-0.011713
5.103000	-0.009740
5.104000	-0.007110
5.105000	-0.009083
5.106000	0.003412
5.107000	-0.001520
5.108000	-0.002178
5.109000	0.002754
5.110000	0.000782
5.111000	-0.001520
5.112000	0.002754
5.113000	-0.001849
5.114000	-0.002507
5.115000	-0.009740
5.116000	-0.004151
5.117000	-0.002507
5.118000	-0.006781
5.119000	-0.006781
5.120000	-0.007768
5.121000	-0.009740
5.122000	-0.010727
5.123000	0.003412
5.124000	-0.009740
5.125000	0.001768
5.126000	0.000453
5.127000	0.013276
5.128000	0.015907
5.129000	0.018537
5.130000	0.001439
5.131000	0.006043
5.132000	0.002426
5.133000	-0.001191
5.134000	-0.009412
5.135000	-0.005466
5.136000	-0.009412
5.137000	-0.013686
5.138000	0.002426
5.139000	-0.001191
5.140000	0.002754
5.141000	0.008015
5.142000	-0.002178
5.143000	-0.004151
5.144000	-0.005795
5.145000	0.010975
5.146000	0.025442
5.147000	0.007358
5.148000	-0.002835
5.149000	0.009988
5.150000	0.016564
5.151000	0.013605
5.152000	0.012290
5.153000	0.012948
5.154000	0.018866
5.155000	0.019853
5.156000	-0.004151
5.157000	0.004727
5.158000	0.001439
5.159000	-0.006452
5.160000	-0.003822
5.161000	0.011632
5.162000	0.007029
5.163000	-0.010069
5.164000	-0.015988
5.165000	-0.005137
5.166000	0.009331
5.167000	0.019195
5.168000	0.005385
5.169000	0.044513
5.170000	0.053391
5.171000	0.053063
5.172000	0.030375
5.173000	0.034320
5.174000	0.027415
5.175000	0.014592
5.176000	0.025771
5.177000	0.014920
5.178000	0.014920
5.179000	0.015578
5.180000	-0.001849
5.181000	-0.014344
5.182000	-0.004479
5.183000	0.005056
5.184000	0.007687
5.185000	0.003741
5.186000	0.015907
5.187000	0.025114
5.188000	0.032676
5.189000	0.028730
5.190000	0.037280
5.191000	0.023470
5.192000	0.021497
5.193000	0.023470
5.194000	0.017880
5.195000	0.010975
5.196000	0.010646
5.197000	0.012290
5.198000	0.001439
5.199000	-0.001520
5.200000	0.006700
5.201000	0.010975
5.202000	0.010317
5.203000	0.011961
5.204000	0.010317
5.205000	0.016564
5.206000	0.012948
5.207000	0.020181
5.208000	0.024127
5.209000	0.017551
5.210000	0.019524
5.211000	0.028073
5.212000	0.018209
5.213000	0.021168
5.214000	0.010975
5.215000	0.010975
5.216000	0.007687
5.217000	0.000453
5.218000	0.006371
5.219000	0.006371
5.220000	0.008015
5.221000	0.002426
5.222000	0.007029
5.223000	0.003412
5.224000	0.013276
5.225000	0.010317
5.226000	0.017880
5.227000	0.022483
5.228000	0.026100
5.229000	0.016564
5.230000	0.019524
5.231000	0.025771
5.232000	0.009659
5.233000	0.014263
5.234000	0.006371
5.235000	-0.000534
5.236000	0.002426
5.237000	0.011632
5.238000	0.010646
5.239000	0.001439
5.240000	0.005056
5.241000	0.008015
5.242000	0.018209
5.243000	0.007687
5.244000	0.007687
5.245000	0.014263
5.246000	0.007029
5.247000	0.008673
5.248000	0.011632
5.249000	0.019853
5.250000	0.023141
5.251000	0.015907
5.252000	0.009659
5.253000	0.012948
5.254000	0.018866
5.255000	0.000782
5.256000	0.006371
5.257000	-0.004479
5.258000	0.000782
5.259000	-0.006781
5.260000	0.013276
5.261000	0.012948
5.262000	-0.009412
5.263000	0.010317
5.264000	0.008673
5.265000	0.018866
5.266000	0.016564
5.267000	0.012948
5.268000	0.014263
5.269000	0.018537
5.270000	0.007358
5.271000	0.012948
5.272000	0.009659
5.273000	0.006700
5.274000	0.009331
5.275000	0.006043
5.276000	0.004398
5.277000	0.003412
5.278000	0.002754
5.279000	0.003083
5.280000	-0.000534
5.281000	0.005385
5.282000	-0.000534
5.283000	0.000453
5.284000	-0.001191
5.285000	0.002754
5.286000	-0.000534
5.287000	0.008015
5.288000	0.005056
5.289000	0.008344
5.290000	0.010975
5.291000	0.018209
5.292000	0.012290
5.293000	0.006043
5.294000	0.000782
5.295000	0.003741
5.296000	-0.005795
5.297000	-0.001191
5.298000	-0.003164
5.299000	-0.007768
5.300000	-0.007768
5.301000	-0.013357
5.302000	-0.009740
5.303000	-0.005466
5.304000	-0.003822
5.305000	-0.007439
5.306000	0.006700
5.307000	0.009002
5.308000	0.002754
5.309000	0.001110
5.310000	-0.003493
5.311000	0.010975
5.312000	0.015249
5.313000	0.011303
5.314000	0.015578
5.315000	0.001768
5.316000	-0.005795
5.317000	-0.001520
5.318000	0.012948
5.319000	0.006043
5.320000	-0.006452
5.321000	-0.032428
5.322000	-0.022564
5.323000	-0.000863
5.324000	0.000782
5.325000	-0.003822
5.326000	-0.007439
5.327000	-0.003493
5.328000	-0.002507
5.329000	-0.003164
5.330000	0.010975
5.331000	0.002426
5.332000	-0.001191
5.333000	-0.006123
5.334000	-0.008754
5.335000	-0.014344
5.336000	-0.005795
5.337000	-0.018947
5.338000	-0.029469
5.339000	-0.028154
5.340000	-0.015330
5.341000	-0.021578
5.342000	-0.023550
5.343000	-0.007439
5.344000	-0.006781
5.345000	-0.007768
5.346000	-0.005795
5.347000	-0.007110
5.348000	-0.014015
5.349000	-0.009083
5.350000	-0.013357
5.351000	-0.016974
5.352000	-0.003493
5.353000	0.009988
5.354000	0.005714
5.355000	0.004070
5.356000	-0.002835
5.357000	-0.002835
5.358000	0.013605
5.359000	0.010646
5.360000	0.008015
5.361000	0.001768
5.362000	-0.001191
5.363000	-0.002507
5.364000	0.003412
5.365000	-0.002835
5.366000	0.008015
5.367000	0.007358
5.368000	-0.003493
5.369000	0.004070
5.370000	-0.000534
5.371000	-0.005795
5.372000	-0.003493
5.373000	-0.000205
5.374000	-0.006123
5.375000	-0.009412
5.376000	-0.010398
5.377000	-0.019276
5.378000	-0.015988
5.379000	-0.024208
5.380000	-0.017632
5.381000	-0.015001
5.382000	-0.015001
5.383000	-0.016317
5.384000	-0.010727
5.385000	-0.010069
5.386000	-0.005137
5.387000	-0.017303
5.388000	-0.013029
5.389000	-0.011384
5.390000	-0.016317
5.391000	-0.006123
5.392000	0.003083
5.393000	-0.003493
5.394000	-0.020920
5.395000	-0.008754
5.396000	-0.012700
5.397000	-0.010398
5.398000	-0.026181
5.399000	-0.018618
5.400000	-0.012371
5.401000	-0.010398
5.402000	-0.014344
5.403000	-0.008754
5.404000	-0.007768
5.405000	-0.003493
5.406000	-0.016317
5.407000	-0.010727
5.408000	-0.015330
5.409000	-0.018290
5.410000	-0.004479
5.411000	0.008015
5.412000	0.002754
5.413000	-0.005795
5.414000	-0.003164
5.415000	-0.004808
5.416000	-0.017632
5.417000	-0.014673
5.418000	-0.016974
5.419000	-0.014344
5.420000	-0.008754
5.421000	-0.003493
5.422000	-0.017303
5.423000	-0.011056
5.424000	-0.007110
5.425000	-0.013686
5.426000	-0.008754
5.427000	-0.013029
5.428000	-0.004151
5.429000	-0.002507
5.430000	0.000124
5.431000	0.005056
5.432000	-0.003822
5.433000	-0.010069
5.434000	-0.002835
5.435000	0.001110
5.436000	-0.004479
5.437000	-0.010727
5.438000	-0.006123
5.439000	-0.007439
5.440000	-0.007439
5.441000	-0.009412
5.442000	-0.012371
5.443000	-0.004479
5.444000	-0.011713
5.445000	-0.001191
5.446000	0.004398
5.447000	0.009988
5.448000	0.010317
5.449000	0.006371
5.450000	-0.000863
5.451000	0.001110
5.452000	-0.001849
5.453000	0.000453
5.454000	0.004398
5.455000	0.000124
5.456000	-0.000205
5.457000	0.002426
5.458000	0.000453
5.459000	0.002097
5.460000	0.006700
5.461000	-0.004808
5.462000	-0.007110
5.463000	-0.012042
5.464000	-0.008425
5.465000	0.003412
5.466000	0.001768
5.467000	0.008015
5.468000	0.019853
5.469000	0.002426
5.470000	-0.002178
5.471000	-0.001520
5.472000	0.012290
5.473000	-0.001191
5.474000	0.014263
5.475000	0.003083
5.476000	0.009002
5.477000	-0.006781
5.478000	0.001439
5.479000	-0.006123
5.480000	-0.010727
5.481000	0.001110
5.482000	-0.001520
5.483000	0.010975
5.484000	0.012948
5.485000	0.020510
5.486000	0.012948
5.487000	0.009331
5.488000	-0.000534
5.489000	0.015578
5.490000	0.011632
5.491000	-0.000205
5.492000	-0.016317
5.493000	0.009002
5.494000	0.011961
5.495000	-0.002507
5.496000	0.002754
5.497000	0.006043
5.498000	0.004398
5.499000	-0.002835
5.500000	-0.005795
5.501000	0.000124
5.502000	0.005056
5.503000	0.007687
5.504000	0.005714
5.505000	0.016236
5.506000	0.019195
5.507000	0.024456
5.508000	0.013605
5.509000	0.017880
5.510000	0.012948
5.511000	0.011303
5.512000	0.008673
5.513000	0.000124
5.514000	0.011632
5.515000	0.001110
5.516000	0.002754
5.517000	-0.007439
5.518000	-0.001191
5.519000	0.004070
5.520000	0.004727
5.521000	0.003412
5.522000	0.002754
5.523000	0.005714
5.524000	0.008344
5.525000	0.014592
5.526000	0.012948
5.527000	0.019853
5.528000	0.016236
5.529000	0.009331
5.530000	0.014263
5.531000	0.010646
5.532000	0.009659
5.533000	-0.001849
5.534000	0.006371
5.535000	0.000124
5.536000	0.008673
5.537000	0.003741
5.538000	0.011632
5.539000	0.015249
5.540000	0.008673
5.541000	0.009002
5.542000	0.012290
5.543000	0.020510
5.544000	0.009331
5.545000	0.014263
5.546000	0.024127
5.547000	0.028402
5.548000	0.011303
5.549000	0.026100
5.550000	0.021825
5.551000	0.007687
5.552000	-0.011384
5.553000	-0.006781
5.554000	0.015578
5.555000	0.004398
5.556000	-0.000534
5.557000	0.006700
5.558000	-0.004479
5.559000	-0.005137
5.560000	-0.003493
5.561000	0.000453
5.562000	-0.000205
5.563000	0.010646
5.564000	0.005056
5.565000	-0.004479
5.566000	-0.002835
5.567000	0.002754
5.568000	0.003741
5.569000	0.011632
5.570000	0.007029
5.571000	0.001439
5.572000	0.013276
5.573000	0.016236
5.574000	0.003083
5.575000	0.004070
5.576000	0.007029
5.577000	-0.001520
5.578000	0.000453
5.579000	0.000782
5.580000	0.008015
5.581000	-0.001520
5.582000	-0.001849
5.583000	-0.009740
5.584000	-0.006452
5.585000	-0.001849
5.586000	-0.003493
5.587000	-0.005795
5.588000	0.000453
5.589000	0.013276
5.590000	0.012290
5.591000	0.005714
5.592000	0.003741
5.593000	0.007687
5.594000	0.001439
5.595000	0.006371
5.596000	-0.005466
5.597000	-0.015001
5.598000	-0.014015
5.599000	-0.007439
5.600000	-0.006452
5.601000	0.009331
5.602000	-0.003493
5.603000	-0.004479
5.604000	-0.003164
5.605000	-0.003822
5.606000	0.003083
5.607000	0.006043
5.608000	0.000782
5.609000	0.000782
5.610000	0.006043
5.611000	-0.003164
5.612000	0.004398
5.613000	0.005714
5.614000	0.010646
5.615000	-0.011384
5.616000	-0.009412
5.617000	-0.010727
5.618000	-0.003164
5.619000	-0.006123
5.620000	-0.022564
5.621000	-0.005795
5.622000	0.000453
5.623000	0.001439
5.624000	0.005056
5.625000	0.004070
5.626000	-0.007439
5.627000	-0.001191
5.628000	0.012619
5.629000	0.010317
5.630000	0.008344
5.631000	0.003412
5.632000	-0.008425
5.633000	-0.000205
5.634000	-0.010069
5.635000	0.000782
5.636000	-0.007110
5.637000	-0.009412
5.638000	-0.016974
5.639000	-0.006781
5.640000	-0.008425
5.641000	-0.004808
5.642000	-0.002178
5.643000	-0.006781
5.644000	-0.001520
5.645000	0.010646
5.646000	-0.000863
5.647000	0.009659
5.648000	0.010317
5.649000	0.011961
5.650000	0.003083
5.651000	0.003083
5.652000	0.005385
5.653000	-0.000205
5.654000	-0.002178
5.655000	0.001110
5.656000	-0.003164
5.657000	-0.005466
5.658000	-0.006452
5.659000	-0.008425
5.660000	-0.010727
5.661000	-0.013357
5.662000	-0.001520
5.663000	0.007029
5.664000	0.004070
5.665000	-0.001520
5.666000	0.008344
5.667000	0.009002
5.668000	-0.000534
5.669000	0.004398
5.670000	0.004727
5.671000	-0.008754
5.672000	-0.000205
5.673000	-0.003493
5.674000	0.004070
5.675000	-0.002835
5.676000	-0.003164
5.677000	-0.001520
5.678000	0.000782
5.679000	-0.011056
5.680000	-0.007439
5.681000	-0.004151
5.682000	-0.004808
5.683000	-0.001520
5.684000	-0.003493
5.685000	0.009988
5.686000	0.006043
5.687000	-0.001849
5.688000	-0.009740
5.689000	0.009988
5.690000	0.005056
5.691000	0.009331
5.692000	0.005714
5.693000	0.005385
5.694000	0.009988
5.695000	-0.000863
5.696000	-0.001191
5.697000	-0.031113
5.698000	-0.018947
5.699000	-0.011384
5.700000	-0.019276
5.701000	-0.010069
5.702000	-0.000534
5.703000	-0.000863
5.704000	0.006700
5.705000	0.011961
5.706000	0.017551
5.707000	0.009659
5.708000	0.004727
5.709000	0.009331
5.710000	0.001110
5.711000	0.003741
5.712000	0.010646
5.713000	-0.000863
5.714000	-0.006123
5.715000	-0.003493
5.716000	-0.006452
5.717000	-0.014673
5.718000	-0.011384
5.719000	-0.018947
5.720000	-0.016974
5.721000	-0.015330
5.722000	-0.001520
5.723000	0.006371
5.724000	0.000124
5.725000	-0.000863
5.726000	0.009331
5.727000	0.002426
5.728000	-0.000205
5.729000	0.003083
5.730000	0.002097
5.731000	0.003412
5.732000	0.003412
5.733000	0.007029
5.734000	0.003412
5.735000	0.004398
5.736000	0.004398
5.737000	-0.002835
5.738000	-0.001520
5.739000	-0.004808
5.740000	-0.012700
5.741000	-0.005795
5.742000	-0.012371
5.743000	-0.012042
5.744000	-0.004151
5.745000	-0.003164
5.746000	0.000124
5.747000	-0.003822
5.748000	-0.002507
5.749000	-0.001849
5.750000	0.002426
5.751000	-0.001849
5.752000	-0.002835
5.753000	-0.003822
5.754000	-0.001191
5.755000	0.000453
5.756000	-0.005137
5.757000	-0.010727
5.758000	-0.003164
5.759000	-0.014673
5.760000	-0.008096
5.761000	-0.005137
5.762000	-0.010069
5.763000	0.000124
5.764000	0.003412
5.765000	0.008344
5.766000	0.008344
5.767000	0.009002
5.768000	0.008015
5.769000	0.010975
5.770000	0.014920
5.771000	0.013605
5.772000	0.004398
5.773000	0.004070
5.774000	0.013276
5.775000	-0.000863
5.776000	-0.014673
5.777000	-0.005466
5.778000	-0.006452
5.779000	0.002754
5.780000	0.004727
5.781000	-0.000534
5.782000	0.005385
5.783000	0.005056
5.784000	0.000453
5.785000	0.011303
5.786000	0.010317
5.787000	0.007358
5.788000	0.003083
5.789000	-0.000205
5.790000	0.013605
5.791000	0.009002
5.792000	0.008015
5.793000	0.007687
5.794000	0.006371
5.795000	0.005056
5.796000	0.008344
5.797000	0.011632
5.798000	0.005385
5.799000	0.003412
5.800000	0.007687
5.801000	0.007029
5.802000	-0.007110
5.803000	-0.005466
5.804000	0.000782
5.805000	0.010317
5.806000	0.014263
5.807000	0.014920
5.808000	0.010975
5.809000	0.014263
5.810000	0.016564
5.811000	0.013934
5.812000	0.016236
5.813000	0.011303
5.814000	0.005714
5.815000	0.002426
5.816000	0.008015
5.817000	0.000124
5.818000	0.009988
5.819000	0.005056
5.820000	-0.000863
5.821000	0.001768
5.822000	0.005056
5.823000	0.002097
5.824000	-0.000205
5.825000	0.003083
5.826000	0.004727
5.827000	0.012290
5.828000	0.013934
5.829000	0.017880
5.830000	0.005385
5.831000	0.016893
5.832000	0.007358
5.833000	0.009988
5.834000	0.000782
5.835000	-0.004151
5.836000	-0.000863
5.837000	0.000453
5.838000	-0.002507
5.839000	-0.001191
5.840000	0.001439
5.841000	0.008015
5.842000	0.000124
5.843000	0.000453
5.844000	0.004727
5.845000	0.013934
5.846000	0.010646
5.847000	0.017222
5.848000	0.019524
5.849000	0.014592
5.850000	0.011961
5.851000	0.017222
5.852000	0.005056
5.853000	0.001439
5.854000	0.006371
5.855000	-0.001191
5.856000	0.009988
5.857000	0.007358
5.858000	0.001768
5.859000	-0.000863
5.860000	0.002097
5.861000	0.000782
5.862000	0.004727
5.863000	0.000453
5.864000	0.006700
5.865000	0.007358
5.866000	0.001110
5.867000	0.014263
5.868000	0.019524
5.869000	0.011961
5.870000	0.007029
5.871000	0.013276
5.872000	0.017222
5.873000	0.010317
5.874000	0.016893
5.875000	0.010317
5.876000	0.010975
5.877000	0.012290
5.878000	0.010975
5.879000	0.008344
5.880000	0.008673
5.881000	0.002426
5.882000	0.013276
5.883000	0.011632
5.884000	0.003412
5.885000	0.002097
5.886000	-0.006781
5.887000	0.009988
5.888000	0.031032
5.889000	0.012290
5.890000	0.000124
5.891000	0.009988
5.892000	0.021168
5.893000	0.017222
5.894000	0.017222
5.895000	0.010975
5.896000	-0.001191
5.897000	0.004727
5.898000	0.010317
5.899000	0.003083
5.900000	0.017880
5.901000	0.013276
5.902000	0.019195
5.903000	0.019524
5.904000	0.010646
5.905000	0.022812
5.906000	0.021168
5.907000	0.011632
5.908000	0.003083
5.909000	0.005056
5.910000	0.011632
5.911000	0.008344
5.912000	0.006371
5.913000	0.021825
5.914000	0.002426
5.915000	-0.004151
5.916000	0.005714
5.917000	0.001439
5.918000	-0.008754
5.919000	0.003083
5.920000	0.002754
5.921000	-0.011056
5.922000	-0.002507
5.923000	0.001439
5.924000	0.001768
5.925000	-0.002507
5.926000	0.004398
5.927000	0.006700
5.928000	0.006371
5.929000	0.004727
5.930000	0.003412
5.931000	0.003741
5.932000	0.000782
5.933000	0.000782
5.934000	0.000453
5.935000	0.002426
5.936000	0.005385
5.937000	0.001439
5.938000	-0.008754
5.939000	-0.005137
5.940000	-0.003822
5.941000	-0.005466
5.942000	-0.008425
5.943000	-0.007110
5.944000	0.002754
5.945000	0.003412
5.946000	0.001768
5.947000	0.000124
5.948000	0.003083
5.949000	0.006043
5.950000	-0.002835
5.951000	-0.004151
5.952000	-0.004151
5.953000	0.005714
5.954000	-0.005795
5.955000	-0.008754
5.956000	-0.002835
5.957000	-0.008425
5.958000	-0.009412
5.959000	-0.015659
5.960000	-0.011713
5.961000	-0.009412
5.962000	-0.012042
5.963000	-0.012371
5.964000	-0.007768
5.965000	0.002754
5.966000	-0.004151
5.967000	0.006371
5.968000	-0.000534
5.969000	0.001110
5.970000	0.008015
5.971000	0.005056
5.972000	0.003741
5.973000	-0.001520
5.974000	-0.005466
5.975000	-0.004479
5.976000	-0.007439
5.977000	-0.005795
5.978000	-0.007768
5.979000	-0.008754
5.980000	-0.011056
5.981000	0.002426
5.982000	0.006371
5.983000	0.000124
5.984000	-0.001191
5.985000	-0.004808
5.986000	0.003412
5.987000	0.005056
5.988000	0.009331
5.989000	0.007029
5.990000	-0.004808
5.991000	-0.004479
5.992000	-0.001191
5.993000	0.002754
5.994000	-0.000205
5.995000	-0.000863
5.996000	-0.001849
5.997000	-0.007110
5.998000	-0.007439
5.999000	-0.005137
6.000000	0.000453
6.001000	0.004070
6.002000	0.002097
6.003000	0.002097
6.004000	0.004727
6.005000	0.012948
6.006000	0.019853
6.007000	0.003412
6.008000	0.009331
6.009000	0.005714
6.010000	0.018537
6.011000	0.010975
6.012000	-0.004479
6.013000	-0.010398
6.014000	-0.030127
6.015000	-0.000205
6.016000	0.004727
6.017000	-0.001520
6.018000	-0.016974
6.019000	-0.009412
6.020000	0.010646
6.021000	0.022483
6.022000	0.026429
6.023000	0.009988
6.024000	0.009988
6.025000	0.010975
6.026000	0.018209
6.027000	0.009988
6.028000	0.002097
6.029000	0.007687
6.030000	0.009331
6.031000	0.013605
6.032000	0.009988
6.033000	0.001768
6.034000	0.005385
6.035000	0.000124
6.036000	0.008344
6.037000	0.000124
6.038000	-0.013686
6.039000	-0.012042
6.040000	0.001768
6.041000	-0.004151
6.042000	0.002097
6.043000	-0.008425
6.044000	-0.002507
6.045000	-0.006452
6.046000	-0.002178
6.047000	0.004398
6.048000	0.009988
6.049000	0.012948
6.050000	0.012948
6.051000	0.011632
6.052000	0.010975
6.053000	0.006043
6.054000	0.001110
6.055000	0.002754
6.056000	-0.011056
6.057000	-0.006781
6.058000	-0.013029
6.059000	-0.004808
6.060000	-0.014673
6.061000	-0.008754
6.062000	-0.012700
6.063000	0.000124
6.064000	0.001110
6.065000	-0.002178
6.066000	0.000782
6.067000	0.004727
6.068000	0.010646
6.069000	0.008015
6.070000	0.000453
6.071000	0.000124
6.072000	0.006371
6.073000	-0.002507
6.074000	0.003741
6.075000	0.002426
6.076000	-0.007768
6.077000	-0.006123
6.078000	-0.009740
6.079000	-0.013357
6.080000	-0.007768
6.081000	-0.004151
6.082000	-0.007439
6.083000	-0.000205
6.084000	-0.011384
6.085000	-0.008096
6.086000	0.000782
6.087000	0.009659
6.088000	0.003741
6.089000	0.007029
6.090000	0.007358
6.091000	0.015578
6.092000	0.014263
6.093000	0.002426
6.094000	0.004727
6.095000	-0.001520
6.096000	-0.006123
6.097000	-0.003164
6.098000	-0.005466
6.099000	-0.006452
6.100000	-0.032100
6.101000	-0.017632
6.102000	-0.004808
6.103000	-0.008754
6.104000	-0.008754
6.105000	0.003412
6.106000	0.013276
6.107000	0.011961
6.108000	0.003412
6.109000	0.014920
6.110000	0.003741
6.111000	0.012948
6.112000	0.011632
6.113000	-0.013686
6.114000	-0.001191
6.115000	-0.010398
6.116000	-0.005466
6.117000	-0.005795
6.118000	-0.007110
6.119000	-0.007439
6.120000	-0.017961
6.121000	-0.001191
6.122000	-0.002507
6.123000	0.000782
6.124000	-0.001191
6.125000	0.006043
6.126000	0.015249
6.127000	0.008673
6.128000	0.004398
6.129000	0.008344
6.130000	0.005714
6.131000	0.010317
6.132000	0.013934
6.133000	0.005385
6.134000	-0.007439
6.135000	-0.012042
6.136000	-0.014015
6.137000	-0.020591
6.138000	-0.007439
6.139000	-0.001520
6.140000	-0.003822
