LabVIEW Measurement	
Writer_Version	2
Reader_Version	2
Separator	Tab
Decimal_Separator	.
Multi_Headings	Yes
X_Columns	One
Time_Pref	Absolute
Operator	absf624
Date	2017/04/21
Time	15:14:13.9726739300346493657
***End_of_Header***	
	
Channels	1	
Samples	1000	
Date	2017/04/21	
Time	15:14:13.9726739300346493657	
Y_Unit_Label	Volts	
X_Dimension	Time	
X0	0.0000000000000000E+0	
Delta_X	0.001000	
***End_of_Header***		
X_Value	Voltage	Comment
0.000000	0.002754
0.001000	-0.003164
0.002000	-0.008096
0.003000	-0.007768
0.004000	-0.012700
0.005000	-0.006123
0.006000	-0.005137
0.007000	-0.016974
0.008000	-0.014015
0.009000	-0.016317
0.010000	-0.003164
0.011000	0.007029
0.012000	0.003083
0.013000	0.002426
0.014000	0.004727
0.015000	0.004398
0.016000	0.016893
0.017000	0.017551
0.018000	0.000453
0.019000	-0.009083
0.020000	0.001110
0.021000	0.011632
0.022000	0.014263
0.023000	0.017880
0.024000	0.014920
0.025000	0.010317
0.026000	0.002097
0.027000	0.001768
0.028000	-0.005137
0.029000	-0.004808
0.030000	-0.011056
0.031000	-0.013357
0.032000	-0.007110
0.033000	0.005385
0.034000	0.008015
0.035000	0.005056
0.036000	0.001110
0.037000	-0.002178
0.038000	-0.003493
0.039000	-0.000534
0.040000	0.004398
0.041000	0.001768
0.042000	0.007358
0.043000	0.003412
0.044000	-0.001849
0.045000	-0.003493
0.046000	-0.009412
0.047000	-0.012700
0.048000	-0.009412
0.049000	0.001768
0.050000	0.005385
0.051000	0.000124
0.052000	0.006371
0.053000	-0.004151
0.054000	0.002754
0.055000	0.003741
0.056000	-0.000205
0.057000	0.000453
0.058000	-0.008754
0.059000	-0.023550
0.060000	-0.019934
0.061000	-0.030127
0.062000	-0.021906
0.063000	-0.019934
0.064000	-0.023879
0.065000	-0.013686
0.066000	-0.019605
0.067000	-0.006781
0.068000	-0.006123
0.069000	0.000782
0.070000	0.009659
0.071000	0.012619
0.072000	0.016236
0.073000	0.024785
0.074000	0.025771
0.075000	0.023470
0.076000	0.019524
0.077000	0.017551
0.078000	0.016236
0.079000	0.008015
0.080000	0.010646
0.081000	0.009988
0.082000	0.008344
0.083000	0.007687
0.084000	0.001439
0.085000	0.002426
0.086000	-0.002507
0.087000	-0.000863
0.088000	-0.002835
0.089000	0.002426
0.090000	0.005056
0.091000	0.008344
0.092000	0.017222
0.093000	0.004398
0.094000	0.006043
0.095000	0.008344
0.096000	0.000453
0.097000	-0.002835
0.098000	-0.008425
0.099000	-0.009412
0.100000	-0.007768
0.101000	-0.014673
0.102000	-0.013686
0.103000	-0.009740
0.104000	0.002754
0.105000	0.000453
0.106000	-0.001520
0.107000	0.004070
0.108000	0.004727
0.109000	0.006043
0.110000	0.003741
0.111000	0.019195
0.112000	0.014920
0.113000	0.000453
0.114000	0.005385
0.115000	0.006700
0.116000	-0.001520
0.117000	-0.004151
0.118000	-0.001191
0.119000	-0.006123
0.120000	-0.011056
0.121000	-0.014673
0.122000	-0.011713
0.123000	-0.007439
0.124000	0.001439
0.125000	0.001768
0.126000	-0.000205
0.127000	0.005714
0.128000	0.010646
0.129000	0.017551
0.130000	0.019195
0.131000	0.012290
0.132000	0.005056
0.133000	0.002097
0.134000	-0.006781
0.135000	-0.003822
0.136000	0.000124
0.137000	-0.007439
0.138000	-0.003493
0.139000	-0.009083
0.140000	-0.006452
0.141000	-0.009412
0.142000	-0.012371
0.143000	-0.003822
0.144000	-0.002507
0.145000	0.005714
0.146000	0.016893
0.147000	0.005056
0.148000	-0.009412
0.149000	-0.006123
0.150000	-0.002835
0.151000	0.009002
0.152000	0.018866
0.153000	0.013276
0.154000	0.001110
0.155000	-0.004151
0.156000	-0.006123
0.157000	-0.008096
0.158000	-0.008096
0.159000	-0.010069
0.160000	-0.005466
0.161000	-0.005137
0.162000	-0.002178
0.163000	0.001439
0.164000	-0.001191
0.165000	-0.001849
0.166000	-0.005137
0.167000	-0.001520
0.168000	0.000782
0.169000	0.007687
0.170000	0.003741
0.171000	0.008015
0.172000	0.009002
0.173000	0.016893
0.174000	0.015578
0.175000	0.010317
0.176000	0.009002
0.177000	0.003083
0.178000	-0.001191
0.179000	0.004727
0.180000	-0.004151
0.181000	-0.005466
0.182000	-0.023550
0.183000	-0.016645
0.184000	-0.011713
0.185000	-0.002507
0.186000	-0.001520
0.187000	0.003412
0.188000	0.008015
0.189000	0.004070
0.190000	0.005385
0.191000	0.014592
0.192000	0.007358
0.193000	-0.001191
0.194000	0.010317
0.195000	0.003741
0.196000	0.006371
0.197000	0.006371
0.198000	0.004398
0.199000	-0.009083
0.200000	-0.014015
0.201000	-0.022235
0.202000	-0.024208
0.203000	-0.019605
0.204000	-0.019934
0.205000	-0.015330
0.206000	-0.001849
0.207000	0.008344
0.208000	0.020181
0.209000	0.033991
0.210000	0.030375
0.211000	0.035636
0.212000	0.023798
0.213000	0.000782
0.214000	-0.004808
0.215000	0.002097
0.216000	0.009659
0.217000	0.003412
0.218000	0.004070
0.219000	-0.004808
0.220000	0.000782
0.221000	-0.001849
0.222000	0.002426
0.223000	0.003083
0.224000	-0.007768
0.225000	-0.008425
0.226000	-0.013357
0.227000	-0.002178
0.228000	0.001110
0.229000	0.006043
0.230000	0.005714
0.231000	0.006371
0.232000	-0.000863
0.233000	-0.002178
0.234000	-0.002835
0.235000	-0.007768
0.236000	-0.005137
0.237000	-0.001520
0.238000	0.001768
0.239000	0.003083
0.240000	0.008344
0.241000	0.008673
0.242000	0.013276
0.243000	0.007029
0.244000	-0.004808
0.245000	0.003083
0.246000	0.004070
0.247000	-0.001520
0.248000	0.012619
0.249000	0.017222
0.250000	0.019853
0.251000	0.009659
0.252000	0.009988
0.253000	0.003741
0.254000	-0.003164
0.255000	-0.001191
0.256000	0.000124
0.257000	-0.008096
0.258000	0.003412
0.259000	0.007029
0.260000	-0.005466
0.261000	-0.007110
0.262000	-0.015330
0.263000	-0.011713
0.264000	-0.007110
0.265000	-0.005466
0.266000	-0.005795
0.267000	-0.000863
0.268000	0.003083
0.269000	0.005385
0.270000	0.002426
0.271000	0.000453
0.272000	0.001439
0.273000	0.002426
0.274000	-0.002835
0.275000	0.003741
0.276000	0.002426
0.277000	-0.000534
0.278000	-0.011384
0.279000	-0.000205
0.280000	0.004398
0.281000	0.006371
0.282000	0.000453
0.283000	-0.005466
0.284000	-0.010398
0.285000	-0.011713
0.286000	-0.012042
0.287000	-0.012371
0.288000	-0.006452
0.289000	-0.011713
0.290000	-0.005466
0.291000	0.005714
0.292000	0.018537
0.293000	0.019853
0.294000	0.012290
0.295000	0.002754
0.296000	-0.002507
0.297000	-0.006123
0.298000	-0.019934
0.299000	-0.009412
0.300000	-0.008754
0.301000	-0.013357
0.302000	-0.004151
0.303000	0.015907
0.304000	0.025442
0.305000	0.025442
0.306000	0.013934
0.307000	0.001768
0.308000	-0.003822
0.309000	-0.001849
0.310000	0.004070
0.311000	0.000453
0.312000	0.001768
0.313000	-0.001849
0.314000	-0.004808
0.315000	-0.003164
0.316000	0.002097
0.317000	-0.000534
0.318000	0.000453
0.319000	-0.000534
0.320000	-0.001849
0.321000	-0.010069
0.322000	-0.010398
0.323000	-0.007439
0.324000	-0.001191
0.325000	-0.001191
0.326000	0.002426
0.327000	-0.000863
0.328000	-0.004151
0.329000	-0.006452
0.330000	-0.007110
0.331000	-0.013686
0.332000	-0.007110
0.333000	-0.011384
0.334000	-0.002178
0.335000	0.002426
0.336000	0.009659
0.337000	0.015907
0.338000	0.026758
0.339000	0.018209
0.340000	0.025442
0.341000	0.014592
0.342000	0.017222
0.343000	0.003412
0.344000	-0.005795
0.345000	0.002426
0.346000	-0.000863
0.347000	-0.001191
0.348000	-0.000534
0.349000	-0.009412
0.350000	-0.010069
0.351000	0.000782
0.352000	0.007687
0.353000	0.003412
0.354000	0.001439
0.355000	-0.002178
0.356000	0.003412
0.357000	0.007029
0.358000	0.000124
0.359000	0.001439
0.360000	-0.000205
0.361000	-0.002178
0.362000	-0.004479
0.363000	0.000124
0.364000	0.004727
0.365000	0.004727
0.366000	0.006700
0.367000	0.008015
0.368000	0.012619
0.369000	0.006700
0.370000	0.004070
0.371000	0.009002
0.372000	0.009331
0.373000	0.002097
0.374000	-0.002507
0.375000	-0.008754
0.376000	-0.002178
0.377000	-0.007768
0.378000	-0.003822
0.379000	0.001768
0.380000	0.008344
0.381000	0.013605
0.382000	0.007029
0.383000	0.002754
0.384000	0.000124
0.385000	0.003741
0.386000	0.004070
0.387000	0.001768
0.388000	-0.001520
0.389000	0.015907
0.390000	0.009659
0.391000	0.015578
0.392000	0.012290
0.393000	0.003412
0.394000	-0.001520
0.395000	-0.008425
0.396000	-0.004479
0.397000	-0.005137
0.398000	-0.012371
0.399000	-0.015330
0.400000	-0.008754
0.401000	-0.005466
0.402000	-0.005795
0.403000	-0.004151
0.404000	-0.010069
0.405000	-0.014673
0.406000	0.003083
0.407000	0.003412
0.408000	0.020181
0.409000	0.025442
0.410000	0.020510
0.411000	0.027086
0.412000	0.020510
0.413000	0.019853
0.414000	0.016893
0.415000	-0.002178
0.416000	-0.005466
0.417000	-0.004479
0.418000	-0.011384
0.419000	-0.013357
0.420000	-0.013029
0.421000	-0.011384
0.422000	-0.005795
0.423000	-0.001849
0.424000	-0.004808
0.425000	-0.002835
0.426000	0.002426
0.427000	0.008015
0.428000	0.003412
0.429000	0.003741
0.430000	0.002426
0.431000	-0.001191
0.432000	-0.002835
0.433000	0.003741
0.434000	0.004398
0.435000	0.004727
0.436000	0.001439
0.437000	0.002426
0.438000	0.006371
0.439000	0.005056
0.440000	0.005385
0.441000	0.006700
0.442000	0.001439
0.443000	-0.005795
0.444000	-0.012700
0.445000	-0.010069
0.446000	-0.002178
0.447000	0.014592
0.448000	0.017551
0.449000	0.015249
0.450000	0.012619
0.451000	0.004398
0.452000	-0.006781
0.453000	0.000124
0.454000	-0.001191
0.455000	0.000453
0.456000	-0.009412
0.457000	-0.018290
0.458000	-0.014344
0.459000	-0.007768
0.460000	-0.009083
0.461000	-0.001520
0.462000	0.002097
0.463000	0.005056
0.464000	0.012619
0.465000	0.011303
0.466000	-0.006452
0.467000	-0.006781
0.468000	0.008344
0.469000	0.011632
0.470000	0.006371
0.471000	0.014263
0.472000	0.006043
0.473000	0.011632
0.474000	0.011961
0.475000	0.016236
0.476000	0.013934
0.477000	0.002754
0.478000	-0.004808
0.479000	0.005714
0.480000	0.004070
0.481000	-0.002507
0.482000	-0.006781
0.483000	-0.002835
0.484000	0.000124
0.485000	0.002426
0.486000	0.010317
0.487000	0.008673
0.488000	0.004070
0.489000	0.005385
0.490000	-0.001849
0.491000	0.003083
0.492000	0.009659
0.493000	0.007029
0.494000	0.006043
0.495000	0.000124
0.496000	0.005714
0.497000	0.001110
0.498000	0.000782
0.499000	-0.000863
0.500000	-0.008096
0.501000	-0.005795
0.502000	0.000782
0.503000	-0.000863
0.504000	0.000453
0.505000	-0.000534
0.506000	-0.001191
0.507000	0.005385
0.508000	0.010646
0.509000	0.012619
0.510000	0.006043
0.511000	0.006700
0.512000	0.007687
0.513000	0.012619
0.514000	0.015578
0.515000	0.015578
0.516000	0.021168
0.517000	0.014592
0.518000	0.010317
0.519000	0.016564
0.520000	0.024785
0.521000	0.007029
0.522000	-0.002178
0.523000	-0.014015
0.524000	0.000453
0.525000	0.006371
0.526000	0.008344
0.527000	0.008673
0.528000	0.012619
0.529000	0.025114
0.530000	0.028730
0.531000	0.028402
0.532000	0.020181
0.533000	0.005385
0.534000	0.004727
0.535000	0.008015
0.536000	0.011303
0.537000	0.016564
0.538000	0.012619
0.539000	0.000782
0.540000	0.004398
0.541000	0.000782
0.542000	0.004398
0.543000	0.004070
0.544000	0.000453
0.545000	-0.003822
0.546000	-0.000205
0.547000	0.004398
0.548000	0.016236
0.549000	0.009988
0.550000	0.004070
0.551000	0.009988
0.552000	0.016893
0.553000	0.008344
0.554000	0.007358
0.555000	0.003741
0.556000	0.001439
0.557000	0.008673
0.558000	0.011632
0.559000	-0.003164
0.560000	-0.006452
0.561000	-0.017961
0.562000	-0.026181
0.563000	-0.023879
0.564000	-0.009740
0.565000	-0.001191
0.566000	0.001439
0.567000	0.002426
0.568000	0.012290
0.569000	0.016564
0.570000	0.019853
0.571000	0.022483
0.572000	0.015578
0.573000	0.007358
0.574000	0.004398
0.575000	0.011632
0.576000	0.018209
0.577000	0.015907
0.578000	0.010975
0.579000	0.004070
0.580000	-0.001520
0.581000	-0.000534
0.582000	0.002426
0.583000	-0.006452
0.584000	-0.014015
0.585000	-0.006123
0.586000	-0.006452
0.587000	-0.005795
0.588000	-0.001849
0.589000	-0.007110
0.590000	0.000124
0.591000	0.001110
0.592000	0.009659
0.593000	0.001439
0.594000	-0.002507
0.595000	-0.002835
0.596000	-0.001520
0.597000	0.011961
0.598000	0.008015
0.599000	0.011961
0.600000	0.015249
0.601000	0.011632
0.602000	0.007687
0.603000	0.002754
0.604000	0.012619
0.605000	-0.000205
0.606000	-0.009083
0.607000	-0.004151
0.608000	-0.003164
0.609000	0.001768
0.610000	-0.007110
0.611000	-0.003822
0.612000	0.001110
0.613000	-0.010398
0.614000	0.000124
0.615000	-0.001191
0.616000	-0.002835
0.617000	0.005714
0.618000	0.006371
0.619000	0.010975
0.620000	0.007358
0.621000	-0.000205
0.622000	-0.005795
0.623000	-0.011384
0.624000	-0.015330
0.625000	-0.013029
0.626000	-0.015001
0.627000	-0.003493
0.628000	0.009659
0.629000	0.014592
0.630000	0.016236
0.631000	0.021497
0.632000	0.014592
0.633000	0.017551
0.634000	0.015249
0.635000	0.012619
0.636000	0.013276
0.637000	0.005714
0.638000	0.001439
0.639000	0.001439
0.640000	-0.004808
0.641000	-0.001191
0.642000	0.001768
0.643000	-0.002835
0.644000	-0.002507
0.645000	-0.004479
0.646000	0.002426
0.647000	0.006043
0.648000	-0.006781
0.649000	-0.003493
0.650000	-0.003493
0.651000	-0.001191
0.652000	-0.010069
0.653000	-0.007768
0.654000	-0.010398
0.655000	0.005056
0.656000	0.005714
0.657000	0.014592
0.658000	0.006700
0.659000	0.020839
0.660000	0.029059
0.661000	0.011961
0.662000	0.006043
0.663000	0.001768
0.664000	-0.012042
0.665000	-0.015330
0.666000	-0.022564
0.667000	-0.023879
0.668000	-0.011713
0.669000	0.000124
0.670000	0.009988
0.671000	0.006043
0.672000	-0.013357
0.673000	-0.012042
0.674000	-0.009412
0.675000	-0.001520
0.676000	-0.003493
0.677000	-0.004151
0.678000	-0.006123
0.679000	0.017551
0.680000	0.019524
0.681000	0.021168
0.682000	0.022154
0.683000	0.009988
0.684000	0.002426
0.685000	-0.000863
0.686000	0.004070
0.687000	0.003412
0.688000	0.005714
0.689000	-0.000205
0.690000	-0.002178
0.691000	0.003741
0.692000	0.005385
0.693000	-0.001849
0.694000	-0.006123
0.695000	-0.013357
0.696000	-0.004151
0.697000	-0.003822
0.698000	0.005056
0.699000	0.000782
0.700000	-0.009083
0.701000	-0.014344
0.702000	-0.011384
0.703000	-0.009083
0.704000	-0.012042
0.705000	-0.007768
0.706000	-0.012700
0.707000	-0.017961
0.708000	-0.011384
0.709000	-0.019934
0.710000	-0.011384
0.711000	-0.009412
0.712000	-0.001191
0.713000	0.013605
0.714000	0.024456
0.715000	0.030703
0.716000	0.033005
0.717000	0.010317
0.718000	0.009331
0.719000	0.008344
0.720000	0.011303
0.721000	-0.007768
0.722000	-0.011713
0.723000	-0.012700
0.724000	-0.002178
0.725000	0.013605
0.726000	0.014263
0.727000	0.005385
0.728000	0.007687
0.729000	0.008673
0.730000	0.008015
0.731000	0.008015
0.732000	0.001110
0.733000	-0.002835
0.734000	-0.015659
0.735000	-0.027167
0.736000	-0.011713
0.737000	-0.007768
0.738000	-0.001520
0.739000	-0.009412
0.740000	-0.003822
0.741000	0.007029
0.742000	0.021497
0.743000	0.019524
0.744000	0.003083
0.745000	-0.015001
0.746000	-0.017303
0.747000	-0.001520
0.748000	0.002426
0.749000	-0.001849
0.750000	0.006043
0.751000	0.013605
0.752000	0.016564
0.753000	0.022154
0.754000	0.021497
0.755000	0.016564
0.756000	0.010975
0.757000	0.005714
0.758000	-0.000205
0.759000	-0.006781
0.760000	-0.016317
0.761000	-0.017961
0.762000	-0.014673
0.763000	-0.005795
0.764000	-0.000863
0.765000	-0.001849
0.766000	-0.005137
0.767000	-0.004479
0.768000	-0.001849
0.769000	0.006700
0.770000	0.005385
0.771000	0.006700
0.772000	-0.005466
0.773000	-0.008754
0.774000	-0.005795
0.775000	-0.002835
0.776000	0.003741
0.777000	0.004398
0.778000	-0.007439
0.779000	0.002097
0.780000	0.002097
0.781000	0.004727
0.782000	0.002426
0.783000	-0.002835
0.784000	-0.006452
0.785000	0.003083
0.786000	-0.000205
0.787000	0.010975
0.788000	0.003412
0.789000	-0.006452
0.790000	-0.007768
0.791000	-0.004808
0.792000	-0.000205
0.793000	-0.000205
0.794000	-0.001191
0.795000	-0.004479
0.796000	-0.013357
0.797000	-0.016974
0.798000	-0.002178
0.799000	0.003083
0.800000	0.004398
0.801000	0.005714
0.802000	-0.002835
0.803000	0.005385
0.804000	-0.004151
0.805000	-0.000863
0.806000	0.002097
0.807000	0.002754
0.808000	0.008344
0.809000	0.007358
0.810000	0.008344
0.811000	0.006700
0.812000	0.016893
0.813000	0.008673
0.814000	0.007358
0.815000	0.003412
0.816000	0.002754
0.817000	-0.005795
0.818000	-0.006452
0.819000	-0.001520
0.820000	-0.004151
0.821000	-0.001191
0.822000	-0.015001
0.823000	-0.022235
0.824000	-0.026510
0.825000	-0.029469
0.826000	-0.021578
0.827000	-0.009740
0.828000	-0.002507
0.829000	0.004727
0.830000	0.017551
0.831000	0.018209
0.832000	0.018209
0.833000	0.017222
0.834000	0.009331
0.835000	-0.006781
0.836000	-0.005795
0.837000	-0.009083
0.838000	-0.008096
0.839000	0.000782
0.840000	0.016893
0.841000	0.016893
0.842000	0.017222
0.843000	0.013276
0.844000	0.000124
0.845000	-0.010398
0.846000	-0.010398
0.847000	-0.015659
0.848000	-0.005795
0.849000	-0.000534
0.850000	-0.002178
0.851000	0.001768
0.852000	0.006043
0.853000	-0.003493
0.854000	-0.002507
0.855000	-0.007110
0.856000	-0.008096
0.857000	-0.000863
0.858000	-0.001849
0.859000	-0.003822
0.860000	-0.013029
0.861000	-0.003164
0.862000	-0.011713
0.863000	-0.005795
0.864000	-0.001191
0.865000	-0.007110
0.866000	-0.005795
0.867000	-0.012700
0.868000	-0.015330
0.869000	-0.002835
0.870000	0.001439
0.871000	-0.005137
0.872000	0.008673
0.873000	0.008344
0.874000	0.007029
0.875000	0.006043
0.876000	-0.001849
0.877000	-0.003822
0.878000	-0.004479
0.879000	-0.004479
0.880000	0.000124
0.881000	-0.002835
0.882000	-0.008425
0.883000	-0.009083
0.884000	-0.013686
0.885000	-0.004151
0.886000	0.005056
0.887000	0.004727
0.888000	-0.002835
0.889000	-0.003493
0.890000	0.001439
0.891000	0.001768
0.892000	0.003741
0.893000	-0.005466
0.894000	-0.001849
0.895000	-0.000863
0.896000	-0.004151
0.897000	-0.001849
0.898000	0.000124
0.899000	-0.001191
0.900000	-0.010398
0.901000	-0.003822
0.902000	0.000453
0.903000	-0.000534
0.904000	0.000124
0.905000	-0.002178
0.906000	-0.001849
0.907000	0.005056
0.908000	-0.000863
0.909000	-0.008425
0.910000	-0.013686
0.911000	-0.010727
0.912000	0.001768
0.913000	0.002754
0.914000	0.003083
0.915000	-0.004151
0.916000	-0.004151
0.917000	-0.014344
0.918000	-0.013029
0.919000	-0.022235
0.920000	-0.026510
0.921000	-0.025195
0.922000	-0.018618
0.923000	-0.009083
0.924000	-0.008425
0.925000	-0.002178
0.926000	-0.003164
0.927000	-0.000863
0.928000	0.005385
0.929000	-0.003493
0.930000	-0.019934
0.931000	-0.014673
0.932000	-0.011384
0.933000	0.004070
0.934000	0.010317
0.935000	0.007687
0.936000	0.002426
0.937000	0.020510
0.938000	0.026100
0.939000	0.028073
0.940000	0.031032
0.941000	0.026100
0.942000	0.019853
0.943000	0.026758
0.944000	0.017551
0.945000	0.007029
0.946000	-0.002835
0.947000	-0.003822
0.948000	-0.000205
0.949000	-0.004479
0.950000	0.006043
0.951000	0.014263
0.952000	0.020181
0.953000	0.027744
0.954000	0.019195
0.955000	0.009002
0.956000	-0.004808
0.957000	-0.012042
0.958000	-0.006123
0.959000	-0.005137
0.960000	-0.016974
0.961000	-0.006781
0.962000	-0.016645
0.963000	-0.007768
0.964000	-0.002178
0.965000	0.001439
0.966000	0.001110
0.967000	0.000782
0.968000	0.006371
0.969000	0.008673
0.970000	0.007687
0.971000	0.005385
0.972000	0.008015
0.973000	0.004727
0.974000	0.016564
0.975000	0.004727
0.976000	0.003412
0.977000	-0.002507
0.978000	-0.010069
0.979000	-0.007768
0.980000	-0.000205
0.981000	-0.000205
0.982000	-0.007110
0.983000	-0.006781
0.984000	-0.011384
0.985000	-0.008425
0.986000	-0.007110
0.987000	-0.003493
0.988000	-0.002178
0.989000	-0.012042
0.990000	-0.008096
0.991000	-0.003164
0.992000	0.000124
0.993000	0.003083
0.994000	0.003741
0.995000	0.002097
0.996000	-0.000534
0.997000	0.006700
0.998000	0.002097
0.999000	-0.000863
1.000000	-0.002835
1.001000	0.002426
1.002000	-0.001849
1.003000	-0.004808
1.004000	-0.008754
1.005000	-0.002178
1.006000	0.008673
1.007000	0.003083
1.008000	0.010317
1.009000	0.011961
1.010000	0.009659
1.011000	0.010646
1.012000	0.009988
1.013000	0.014263
1.014000	0.003412
1.015000	0.002426
1.016000	-0.007768
1.017000	0.000453
1.018000	0.007358
1.019000	0.000124
1.020000	-0.003493
1.021000	-0.004151
1.022000	-0.000205
1.023000	-0.007439
1.024000	-0.005137
1.025000	0.003741
1.026000	-0.010069
1.027000	-0.013029
1.028000	-0.009740
1.029000	-0.006452
1.030000	0.002426
1.031000	0.001110
1.032000	0.005385
1.033000	-0.000205
1.034000	0.012290
1.035000	0.019524
1.036000	0.017222
1.037000	0.018537
1.038000	0.011303
1.039000	0.006371
1.040000	0.005385
1.041000	0.001439
1.042000	-0.002835
1.043000	-0.005137
1.044000	-0.015001
1.045000	-0.005466
1.046000	-0.008096
1.047000	-0.002835
1.048000	0.009988
1.049000	-0.005137
1.050000	-0.002835
1.051000	-0.001191
1.052000	0.008015
1.053000	0.002754
1.054000	0.005056
1.055000	-0.005137
1.056000	-0.009740
1.057000	-0.014673
1.058000	-0.010398
1.059000	-0.012371
1.060000	-0.016645
1.061000	-0.012371
1.062000	-0.006123
1.063000	-0.000205
1.064000	0.003412
1.065000	0.006700
1.066000	0.014920
1.067000	0.013276
1.068000	0.002097
1.069000	-0.001849
1.070000	0.005056
1.071000	-0.005466
1.072000	-0.002835
1.073000	-0.002835
1.074000	-0.000534
1.075000	0.001110
1.076000	-0.005137
1.077000	-0.004479
1.078000	-0.002178
1.079000	-0.000534
1.080000	-0.005137
1.081000	0.002754
1.082000	0.002426
1.083000	-0.006452
1.084000	-0.011713
1.085000	-0.003822
1.086000	-0.002835
1.087000	-0.014344
1.088000	-0.011713
1.089000	-0.015330
1.090000	-0.001191
1.091000	0.003741
1.092000	0.011961
1.093000	0.014592
1.094000	0.008015
1.095000	-0.016974
1.096000	-0.016645
1.097000	-0.018618
1.098000	-0.014344
1.099000	-0.014673
1.100000	-0.016317
1.101000	-0.000534
1.102000	0.009659
1.103000	0.009988
1.104000	0.012290
1.105000	0.009988
1.106000	0.006700
1.107000	-0.001849
1.108000	-0.007768
1.109000	-0.022235
1.110000	-0.019605
1.111000	-0.018947
1.112000	-0.012042
1.113000	0.000124
1.114000	0.001110
1.115000	0.014920
1.116000	0.019195
1.117000	0.033334
1.118000	0.025771
1.119000	0.022483
1.120000	-0.006123
1.121000	-0.009740
1.122000	-0.012700
1.123000	-0.001520
1.124000	-0.001520
1.125000	-0.000863
1.126000	-0.011056
1.127000	-0.004151
1.128000	-0.009740
1.129000	-0.008425
1.130000	-0.007110
1.131000	0.001768
1.132000	0.011961
1.133000	0.012948
1.134000	0.014592
1.135000	0.012619
1.136000	0.014592
1.137000	0.019524
1.138000	0.000453
1.139000	-0.015330
1.140000	-0.017961
1.141000	-0.018947
1.142000	-0.011384
1.143000	-0.004479
1.144000	0.005714
1.145000	0.003412
1.146000	0.009659
1.147000	0.006700
1.148000	0.002097
1.149000	0.001439
1.150000	0.004398
1.151000	0.011303
1.152000	0.013605
1.153000	0.010317
1.154000	0.014263
1.155000	0.011632
1.156000	0.002754
1.157000	0.009988
1.158000	0.000782
1.159000	0.002097
1.160000	0.000453
1.161000	-0.000534
1.162000	0.001110
1.163000	0.004070
1.164000	-0.001520
1.165000	0.007358
1.166000	0.005056
1.167000	0.008015
1.168000	0.010646
1.169000	0.012619
1.170000	0.011632
1.171000	0.015907
1.172000	0.004070
1.173000	0.004727
1.174000	0.001439
1.175000	0.002097
1.176000	0.009659
1.177000	0.012290
1.178000	0.020839
1.179000	0.008015
1.180000	0.002754
1.181000	0.007029
1.182000	-0.010398
1.183000	-0.012042
1.184000	-0.012700
1.185000	-0.011056
1.186000	-0.011056
1.187000	-0.005795
1.188000	0.001439
1.189000	0.009988
1.190000	0.019853
1.191000	0.020839
1.192000	0.007029
1.193000	0.015578
1.194000	0.017880
1.195000	0.006043
1.196000	-0.000863
1.197000	0.004070
1.198000	-0.005137
1.199000	-0.019276
1.200000	-0.014015
1.201000	0.007358
1.202000	0.022483
1.203000	0.025114
1.204000	0.019853
1.205000	0.006043
1.206000	0.007029
1.207000	0.003741
1.208000	0.005056
1.209000	0.000453
1.210000	-0.003822
1.211000	-0.008754
1.212000	0.005056
1.213000	0.015578
1.214000	0.008673
1.215000	0.008015
1.216000	0.000453
1.217000	0.007358
1.218000	0.010646
1.219000	0.004727
1.220000	0.004727
1.221000	0.006043
1.222000	-0.004151
1.223000	-0.000863
1.224000	0.001439
1.225000	0.003083
1.226000	0.003083
1.227000	0.001768
1.228000	0.006700
1.229000	0.009002
1.230000	0.021168
1.231000	0.020510
1.232000	0.020181
1.233000	0.016893
1.234000	0.014592
1.235000	0.016236
1.236000	0.022154
1.237000	0.006700
1.238000	0.000782
1.239000	0.007029
1.240000	0.001439
1.241000	-0.005137
1.242000	0.002754
1.243000	-0.006452
1.244000	-0.007439
1.245000	-0.015988
1.246000	-0.014344
1.247000	-0.015659
1.248000	-0.003493
1.249000	-0.015330
1.250000	-0.004479
1.251000	0.004398
1.252000	0.015578
1.253000	0.021825
1.254000	0.017551
1.255000	0.008344
1.256000	0.008344
1.257000	0.011961
1.258000	0.007358
1.259000	-0.000534
1.260000	-0.001849
1.261000	-0.001849
1.262000	0.001110
1.263000	0.008015
1.264000	0.009002
1.265000	-0.004479
1.266000	-0.007110
1.267000	-0.003822
1.268000	0.003412
1.269000	-0.006452
1.270000	-0.012042
1.271000	-0.012700
1.272000	-0.005466
1.273000	0.003741
1.274000	0.003083
1.275000	0.002097
1.276000	-0.003493
1.277000	-0.011056
1.278000	-0.012700
1.279000	-0.013029
1.280000	0.000782
1.281000	0.004398
1.282000	0.001110
1.283000	-0.006123
1.284000	-0.003164
1.285000	-0.003822
1.286000	0.001768
1.287000	0.002097
1.288000	0.000453
1.289000	-0.000534
1.290000	0.000782
1.291000	0.001768
1.292000	-0.004808
1.293000	-0.009083
1.294000	-0.010069
1.295000	-0.006452
1.296000	-0.009740
1.297000	-0.009412
1.298000	-0.007110
1.299000	0.008015
1.300000	-0.012371
1.301000	-0.010727
1.302000	-0.003493
1.303000	-0.003164
1.304000	-0.000863
1.305000	0.007358
1.306000	0.005714
1.307000	0.006371
1.308000	-0.004479
1.309000	-0.005466
1.310000	0.004398
1.311000	-0.002835
1.312000	-0.011056
1.313000	-0.016645
1.314000	-0.005137
1.315000	0.005056
1.316000	0.013276
1.317000	0.018209
1.318000	0.018866
1.319000	0.012948
1.320000	-0.007110
1.321000	-0.017303
1.322000	-0.028483
1.323000	-0.039991
1.324000	-0.038018
1.325000	-0.029140
1.326000	-0.023879
1.327000	-0.010398
1.328000	0.009331
1.329000	0.014263
1.330000	0.017551
1.331000	0.013276
1.332000	0.011303
1.333000	0.004398
1.334000	0.003083
1.335000	0.012290
1.336000	-0.003822
1.337000	0.006043
1.338000	-0.004151
1.339000	-0.006123
1.340000	-0.007768
1.341000	-0.002507
1.342000	-0.007110
1.343000	-0.001849
1.344000	0.000124
1.345000	-0.011713
1.346000	-0.025195
1.347000	-0.003164
1.348000	0.000124
1.349000	-0.007110
1.350000	-0.010398
1.351000	-0.006123
1.352000	0.001768
1.353000	-0.004151
1.354000	-0.005795
1.355000	-0.008754
1.356000	-0.010398
1.357000	0.009988
1.358000	0.000124
1.359000	0.006371
1.360000	0.005385
1.361000	0.006700
1.362000	0.005714
1.363000	-0.004808
1.364000	-0.001191
1.365000	-0.005466
1.366000	-0.003822
1.367000	-0.002835
1.368000	-0.019934
1.369000	-0.012700
1.370000	-0.009740
1.371000	-0.006123
1.372000	0.016564
1.373000	0.018209
1.374000	0.007029
1.375000	0.003741
1.376000	0.009002
1.377000	0.000453
1.378000	0.003412
1.379000	0.025442
1.380000	0.007358
1.381000	0.000782
1.382000	-0.009740
1.383000	0.010646
1.384000	0.050103
1.385000	0.037608
1.386000	0.010975
1.387000	0.004398
1.388000	0.007029
1.389000	-0.013357
1.390000	-0.005137
1.391000	-0.016317
1.392000	-0.015988
1.393000	0.009002
1.394000	0.009659
1.395000	-0.015988
1.396000	-0.038347
1.397000	-0.023879
1.398000	-0.015001
1.399000	-0.019276
1.400000	-0.005466
1.401000	0.005385
1.402000	0.008015
1.403000	0.017551
1.404000	0.020510
1.405000	0.017222
1.406000	0.024456
1.407000	0.024127
1.408000	0.010317
1.409000	0.032019
1.410000	0.069174
1.411000	0.089232
1.412000	0.066215
1.413000	0.040897
1.414000	0.007358
1.415000	-0.020920
1.416000	-0.042950
1.417000	-0.049855
1.418000	-0.028154
1.419000	-0.028483
1.420000	0.006371
1.421000	0.021825
1.422000	0.037608
1.423000	0.029059
1.424000	-0.000205
1.425000	-0.027167
1.426000	-0.041635
1.427000	-0.043279
1.428000	-0.008754
1.429000	-0.004479
1.430000	-0.008754
1.431000	0.010317
1.432000	0.017880
1.433000	0.035636
1.434000	0.055364
1.435000	0.049774
1.436000	0.034978
1.437000	0.026100
1.438000	0.006043
1.439000	0.002426
1.440000	-0.006781
1.441000	-0.015659
1.442000	-0.026510
1.443000	-0.027496
1.444000	-0.005795
1.445000	-0.005795
1.446000	-0.005137
1.447000	0.011303
1.448000	0.020181
1.449000	0.018209
1.450000	0.016564
1.451000	0.009331
1.452000	-0.001520
1.453000	0.007029
1.454000	0.008344
1.455000	0.014920
1.456000	0.015249
1.457000	0.015249
1.458000	0.002754
1.459000	0.018209
1.460000	0.041554
1.461000	0.043198
1.462000	0.046157
1.463000	0.034978
1.464000	-0.001520
1.465000	-0.023222
1.466000	-0.014015
1.467000	0.001768
1.468000	-0.011384
1.469000	0.010646
1.470000	0.025442
1.471000	0.032676
1.472000	0.009659
1.473000	-0.046238
1.474000	-0.048211
1.475000	-0.056103
1.476000	-0.062350
1.477000	-0.042293
1.478000	-0.046238
1.479000	-0.037361
1.480000	-0.009083
1.481000	-0.006781
1.482000	-0.001520
1.483000	0.014920
1.484000	0.007687
1.485000	0.004398
1.486000	0.016893
1.487000	0.040568
1.488000	0.030703
1.489000	0.053720
1.490000	-0.001191
1.491000	-0.023879
1.492000	-0.003493
1.493000	0.013605
1.494000	0.007358
1.495000	-0.007110
1.496000	-0.053801
1.497000	-0.060377
1.498000	-0.047554
1.499000	-0.038018
1.500000	-0.015330
1.501000	-0.007768
1.502000	-0.018290
1.503000	-0.023222
1.504000	-0.024537
1.505000	-0.028811
1.506000	-0.043608
1.507000	-0.026839
1.508000	-0.008096
1.509000	-0.009083
1.510000	0.007687
1.511000	0.008673
1.512000	0.001768
1.513000	0.008673
1.514000	0.004070
1.515000	-0.007768
1.516000	-0.014015
1.517000	-0.013357
1.518000	-0.005466
1.519000	-0.009083
1.520000	-0.006781
1.521000	-0.012042
1.522000	-0.007768
1.523000	-0.001520
1.524000	-0.005795
1.525000	-0.000205
1.526000	-0.002178
1.527000	-0.004808
1.528000	-0.013357
1.529000	-0.026510
1.530000	-0.020591
1.531000	-0.002178
1.532000	0.002426
1.533000	0.011632
1.534000	0.013276
1.535000	0.009002
1.536000	-0.003493
1.537000	-0.017632
1.538000	-0.017632
1.539000	-0.023879
1.540000	-0.013029
1.541000	0.013605
1.542000	0.025114
1.543000	0.022812
1.544000	0.007687
1.545000	0.014263
1.546000	-0.000863
1.547000	-0.030456
1.548000	-0.039991
1.549000	-0.048540
1.550000	-0.056432
1.551000	-0.029140
1.552000	-0.004151
1.553000	0.017551
1.554000	0.033005
1.555000	0.022154
1.556000	0.016236
1.557000	0.014263
1.558000	0.008344
1.559000	0.006371
1.560000	-0.000534
1.561000	-0.005795
1.562000	0.004070
1.563000	-0.000205
1.564000	-0.019934
1.565000	-0.012700
1.566000	0.002426
1.567000	0.001768
1.568000	0.009659
1.569000	0.019195
1.570000	0.027086
1.571000	0.027086
1.572000	0.043198
1.573000	0.061283
1.574000	0.013276
1.575000	0.001439
1.576000	-0.009083
1.577000	-0.034072
1.578000	-0.017632
1.579000	-0.006452
1.580000	-0.012042
1.581000	-0.010727
1.582000	-0.013357
1.583000	-0.009083
1.584000	-0.001191
1.585000	0.006043
1.586000	0.011632
1.587000	0.007687
1.588000	0.004070
1.589000	0.016893
1.590000	0.011961
1.591000	-0.006123
1.592000	-0.006123
1.593000	-0.002835
1.594000	0.000453
1.595000	0.010317
1.596000	0.008673
1.597000	0.014592
1.598000	0.018209
1.599000	0.024785
1.600000	0.048130
1.601000	0.057337
1.602000	0.065886
1.603000	0.038595
1.604000	0.013605
1.605000	-0.015659
1.606000	-0.010398
1.607000	-0.014344
1.608000	-0.010398
1.609000	-0.021249
1.610000	-0.008754
1.611000	0.010317
1.612000	0.021168
1.613000	0.011961
1.614000	0.006371
1.615000	0.001768
1.616000	0.011303
1.617000	0.007358
1.618000	-0.000205
1.619000	-0.005466
1.620000	-0.009412
1.621000	-0.005466
1.622000	-0.002507
1.623000	-0.010398
1.624000	-0.003493
1.625000	0.006700
1.626000	0.025114
1.627000	0.020510
1.628000	0.022154
1.629000	0.024456
1.630000	0.018866
1.631000	-0.004808
1.632000	-0.012042
1.633000	0.003741
1.634000	0.013276
1.635000	0.028073
1.636000	0.013934
1.637000	0.000124
1.638000	-0.007439
1.639000	0.003741
1.640000	-0.011384
1.641000	-0.008754
1.642000	-0.009740
1.643000	0.004070
1.644000	0.021825
1.645000	0.029388
1.646000	0.027744
1.647000	0.006043
1.648000	0.006043
1.649000	0.004398
1.650000	0.006043
1.651000	-0.008425
1.652000	0.005385
1.653000	-0.014673
1.654000	-0.025523
1.655000	-0.030784
1.656000	0.001439
1.657000	0.010317
1.658000	0.000124
1.659000	-0.007439
1.660000	-0.006123
1.661000	-0.000205
1.662000	0.001110
1.663000	-0.006452
1.664000	-0.004808
1.665000	0.002097
1.666000	0.010646
1.667000	0.007358
1.668000	0.004398
1.669000	0.010975
1.670000	0.006043
1.671000	0.002754
1.672000	0.000124
1.673000	0.010975
1.674000	0.010646
1.675000	0.010317
1.676000	0.008344
1.677000	0.015578
1.678000	0.010646
1.679000	0.004070
1.680000	0.004398
1.681000	0.014592
1.682000	0.014920
1.683000	0.008673
1.684000	-0.001849
1.685000	-0.007768
1.686000	-0.000534
1.687000	0.001439
1.688000	0.015907
1.689000	-0.011056
1.690000	-0.030456
1.691000	-0.026510
1.692000	-0.016974
1.693000	-0.008096
1.694000	-0.010727
1.695000	-0.002178
1.696000	-0.004479
1.697000	0.003412
1.698000	0.014263
1.699000	0.028402
1.700000	0.007358
1.701000	-0.023550
1.702000	-0.029140
1.703000	-0.031771
1.704000	-0.029469
1.705000	-0.037361
1.706000	-0.025195
1.707000	-0.017632
1.708000	0.000782
1.709000	-0.005137
1.710000	0.010646
1.711000	0.014263
1.712000	0.009331
1.713000	0.020181
1.714000	0.016893
1.715000	0.017551
1.716000	0.015578
1.717000	0.014592
1.718000	0.023141
1.719000	0.005714
1.720000	-0.002178
1.721000	-0.013686
1.722000	-0.021578
1.723000	-0.024866
1.724000	-0.019934
1.725000	-0.028154
1.726000	-0.020591
1.727000	-0.006781
1.728000	-0.007110
1.729000	0.018537
1.730000	0.036622
1.731000	0.028730
1.732000	0.016564
1.733000	0.034978
1.734000	0.046157
1.735000	0.022812
1.736000	0.014592
1.737000	0.014592
1.738000	0.014263
1.739000	-0.006452
1.740000	-0.007110
1.741000	-0.006781
1.742000	-0.012042
1.743000	-0.010398
1.744000	0.009002
1.745000	0.013934
1.746000	0.008673
1.747000	-0.005795
1.748000	-0.016974
1.749000	0.009659
1.750000	0.024785
1.751000	0.040239
1.752000	0.033991
1.753000	0.010975
1.754000	-0.007110
1.755000	-0.012371
1.756000	-0.014673
1.757000	-0.035388
1.758000	-0.029469
1.759000	-0.007110
1.760000	0.041225
1.761000	0.056351
1.762000	0.041225
1.763000	0.012619
1.764000	0.008015
1.765000	-0.008425
1.766000	-0.017632
1.767000	-0.039333
1.768000	-0.046896
1.769000	-0.034401
1.770000	-0.003822
1.771000	0.004727
1.772000	0.010317
1.773000	-0.001520
1.774000	-0.023222
1.775000	-0.017303
1.776000	-0.026181
1.777000	-0.013357
1.778000	0.010975
1.779000	0.016893
1.780000	0.004727
1.781000	0.014920
1.782000	0.008673
1.783000	0.010975
1.784000	0.016236
1.785000	0.011961
1.786000	-0.006123
1.787000	-0.018947
1.788000	-0.011384
1.789000	0.005056
1.790000	-0.010398
1.791000	-0.015001
1.792000	-0.005137
1.793000	0.017551
1.794000	0.030703
1.795000	0.054049
1.796000	0.050432
1.797000	0.053063
1.798000	0.041554
1.799000	0.012948
1.800000	-0.001520
1.801000	0.005714
1.802000	-0.017632
1.803000	-0.012700
1.804000	0.004070
1.805000	-0.008096
1.806000	-0.014344
1.807000	-0.017961
1.808000	-0.031442
1.809000	-0.040320
1.810000	-0.019276
1.811000	-0.000534
1.812000	0.011961
1.813000	0.008344
1.814000	0.002754
1.815000	-0.007110
1.816000	-0.007439
1.817000	0.014920
1.818000	0.008344
1.819000	0.003083
1.820000	0.001439
1.821000	-0.007768
1.822000	-0.025195
1.823000	-0.010398
1.824000	-0.029140
1.825000	-0.019934
1.826000	-0.016645
1.827000	-0.002178
1.828000	-0.002178
1.829000	0.002754
1.830000	-0.014673
1.831000	-0.005137
1.832000	0.005056
1.833000	0.015907
1.834000	0.024785
1.835000	0.035636
1.836000	0.018209
1.837000	0.003412
1.838000	-0.008096
1.839000	0.010317
1.840000	-0.003822
1.841000	0.011303
1.842000	0.004070
1.843000	-0.009083
1.844000	-0.024537
1.845000	-0.003822
1.846000	-0.018290
1.847000	-0.026181
1.848000	-0.016974
1.849000	-0.009412
1.850000	0.026758
1.851000	0.026100
1.852000	0.032347
1.853000	0.026429
1.854000	0.029388
1.855000	0.025771
1.856000	0.003412
1.857000	-0.002835
1.858000	-0.018947
1.859000	-0.019934
1.860000	-0.029469
1.861000	-0.045252
1.862000	-0.026839
1.863000	-0.016974
1.864000	-0.009412
1.865000	-0.023879
1.866000	-0.023222
1.867000	-0.009083
1.868000	-0.014344
1.869000	-0.013029
1.870000	-0.018290
1.871000	0.001768
1.872000	0.004070
1.873000	0.000453
1.874000	0.028073
1.875000	0.027744
1.876000	0.022154
1.877000	-0.011056
1.878000	-0.005795
1.879000	-0.016645
1.880000	-0.012371
1.881000	-0.029798
1.882000	-0.034401
1.883000	-0.034072
1.884000	-0.009412
1.885000	-0.009740
1.886000	-0.001849
1.887000	0.003412
1.888000	0.000782
1.889000	-0.015659
1.890000	-0.009083
1.891000	0.011632
1.892000	0.004398
1.893000	0.013934
1.894000	0.030703
1.895000	0.018866
1.896000	-0.007439
1.897000	-0.004151
1.898000	0.001768
1.899000	-0.011056
1.900000	-0.024866
1.901000	-0.018618
1.902000	-0.030456
1.903000	-0.022893
1.904000	-0.004479
1.905000	-0.010398
1.906000	-0.009740
1.907000	-0.010069
1.908000	-0.005137
1.909000	-0.021578
1.910000	-0.011056
1.911000	-0.010727
1.912000	-0.014673
1.913000	-0.026839
1.914000	-0.012042
1.915000	-0.003493
1.916000	-0.009412
1.917000	0.011961
1.918000	0.020181
1.919000	0.007358
1.920000	0.007029
1.921000	0.006043
1.922000	0.021825
1.923000	0.015249
1.924000	0.016236
1.925000	0.000453
1.926000	-0.002507
1.927000	0.005714
1.928000	0.005714
1.929000	0.009331
1.930000	0.021497
1.931000	0.035964
1.932000	0.039910
1.933000	0.027086
1.934000	0.016564
1.935000	0.010646
1.936000	-0.004808
1.937000	-0.021249
1.938000	-0.006781
1.939000	-0.015330
1.940000	-0.025195
1.941000	-0.025852
1.942000	-0.008096
1.943000	0.011632
1.944000	0.009988
1.945000	-0.016974
1.946000	0.004398
1.947000	0.006371
1.948000	0.009331
1.949000	0.002097
1.950000	0.000453
1.951000	0.007687
1.952000	0.014920
1.953000	0.011632
1.954000	0.024785
1.955000	0.017551
1.956000	0.002097
1.957000	-0.012371
1.958000	-0.029469
1.959000	-0.015330
1.960000	0.009331
1.961000	0.033005
1.962000	0.038924
1.963000	0.054049
1.964000	0.043856
1.965000	0.013934
1.966000	-0.001849
1.967000	-0.003164
1.968000	-0.010069
1.969000	-0.017961
1.970000	-0.006123
1.971000	-0.021906
1.972000	-0.022893
1.973000	-0.012042
1.974000	-0.003164
1.975000	0.019853
1.976000	0.030046
1.977000	0.028730
1.978000	0.046486
1.979000	0.038266
1.980000	0.013934
1.981000	0.010646
1.982000	-0.012042
1.983000	-0.039333
1.984000	-0.031771
1.985000	-0.046567
1.986000	-0.041306
1.987000	-0.013029
1.988000	0.005385
1.989000	-0.000205
1.990000	0.000453
1.991000	0.011632
1.992000	0.016564
1.993000	0.016564
1.994000	0.022154
1.995000	0.016564
1.996000	0.000124
1.997000	-0.004808
1.998000	-0.002835
1.999000	0.006700
2.000000	-0.006452
2.001000	0.005714
2.002000	0.001439
2.003000	0.009988
2.004000	0.003741
2.005000	-0.000534
2.006000	-0.004151
2.007000	0.011632
2.008000	0.013605
2.009000	0.020510
2.010000	0.016564
2.011000	0.007358
2.012000	-0.002835
2.013000	-0.003493
2.014000	-0.008754
2.015000	-0.006452
2.016000	-0.004479
2.017000	0.006043
2.018000	0.009659
2.019000	0.019853
2.020000	0.025114
2.021000	0.015578
2.022000	-0.000863
2.023000	-0.013029
2.024000	-0.020591
2.025000	-0.006781
2.026000	0.005714
2.027000	-0.009740
2.028000	-0.020262
2.029000	-0.012371
2.030000	-0.004808
2.031000	0.000453
2.032000	0.017551
2.033000	0.024127
2.034000	0.033663
2.035000	0.061283
2.036000	0.070818
2.037000	0.041554
2.038000	0.031032
2.039000	-0.004479
2.040000	-0.020262
2.041000	-0.037032
2.042000	-0.053144
2.043000	-0.046567
2.044000	-0.035717
2.045000	-0.013029
2.046000	-0.011384
2.047000	0.006700
2.048000	0.011961
2.049000	-0.007768
2.050000	-0.001191
2.051000	-0.003822
2.052000	0.003741
2.053000	0.009331
2.054000	0.010975
2.055000	0.006371
2.056000	0.002097
2.057000	-0.002835
2.058000	-0.008425
2.059000	-0.000863
2.060000	-0.014015
2.061000	-0.019934
2.062000	-0.024537
2.063000	-0.016645
2.064000	-0.021578
2.065000	0.000782
2.066000	0.002426
2.067000	-0.020920
2.068000	-0.015330
2.069000	-0.004479
2.070000	-0.001191
2.071000	0.003083
2.072000	0.014592
2.073000	0.014920
2.074000	0.012290
2.075000	0.028730
2.076000	0.023798
2.077000	0.010317
2.078000	-0.007768
2.079000	-0.020262
2.080000	-0.028811
2.081000	-0.029140
2.082000	-0.025523
2.083000	-0.027167
2.084000	-0.029798
2.085000	-0.013686
2.086000	0.000782
2.087000	0.007358
2.088000	-0.002178
2.089000	-0.004151
2.090000	0.008344
2.091000	0.029717
2.092000	0.045500
2.093000	0.048788
2.094000	0.028730
2.095000	0.011303
2.096000	-0.002507
2.097000	0.010646
2.098000	-0.005466
2.099000	-0.019276
2.100000	-0.023550
2.101000	-0.009740
2.102000	-0.009083
2.103000	-0.016645
2.104000	-0.028811
2.105000	-0.027496
2.106000	-0.003493
2.107000	0.026429
2.108000	0.025771
2.109000	0.029059
2.110000	0.030046
2.111000	0.012619
2.112000	0.001110
2.113000	-0.003822
2.114000	0.004398
2.115000	0.009659
2.116000	0.003083
2.117000	0.004398
2.118000	-0.002835
2.119000	0.005056
2.120000	0.008015
2.121000	0.004727
2.122000	-0.001849
2.123000	-0.008425
2.124000	-0.013686
2.125000	0.001110
2.126000	0.000782
2.127000	-0.001849
2.128000	0.009988
2.129000	0.022154
2.130000	0.034320
2.131000	0.039581
2.132000	0.027415
2.133000	0.016893
2.134000	0.012290
2.135000	-0.001520
2.136000	-0.010727
2.137000	-0.014673
2.138000	-0.013357
2.139000	-0.016317
2.140000	-0.003164
2.141000	0.012619
2.142000	0.014592
2.143000	0.020839
2.144000	0.030703
2.145000	0.032676
2.146000	0.034649
2.147000	0.015249
2.148000	0.011961
2.149000	0.001110
2.150000	-0.009740
2.151000	-0.020920
2.152000	-0.026510
2.153000	-0.012042
2.154000	-0.014673
2.155000	-0.015659
2.156000	-0.016317
2.157000	-0.020920
2.158000	-0.019934
2.159000	-0.019605
2.160000	-0.008096
2.161000	-0.010069
2.162000	-0.012371
2.163000	-0.007439
2.164000	-0.010727
2.165000	-0.007110
2.166000	0.002426
2.167000	0.002097
2.168000	0.023470
2.169000	0.033663
2.170000	0.032676
2.171000	0.016236
2.172000	0.015907
2.173000	0.004070
2.174000	-0.004808
2.175000	-0.012371
2.176000	-0.009412
2.177000	-0.022564
2.178000	-0.008754
2.179000	-0.005795
2.180000	-0.004151
2.181000	-0.001520
2.182000	-0.004151
2.183000	-0.003164
2.184000	0.002426
2.185000	0.012619
2.186000	0.003741
2.187000	-0.008754
2.188000	-0.016645
2.189000	-0.009412
2.190000	-0.008096
2.191000	-0.014015
2.192000	-0.019605
2.193000	-0.030784
2.194000	-0.027167
2.195000	-0.007439
2.196000	0.013605
2.197000	0.022154
2.198000	0.023798
2.199000	0.021168
2.200000	0.035307
2.201000	0.033991
2.202000	0.029717
2.203000	0.003741
2.204000	-0.017961
2.205000	-0.020262
2.206000	-0.027167
2.207000	-0.014015
2.208000	-0.005137
2.209000	0.013276
2.210000	0.038595
2.211000	0.034649
2.212000	0.012619
2.213000	0.011961
2.214000	0.001439
2.215000	-0.010727
2.216000	-0.019276
2.217000	-0.017961
2.218000	-0.025523
2.219000	-0.032757
2.220000	-0.014673
2.221000	-0.021906
2.222000	-0.023222
2.223000	-0.027825
2.224000	-0.007768
2.225000	-0.000863
2.226000	-0.000863
2.227000	0.009659
2.228000	0.015907
2.229000	0.017222
2.230000	0.027086
2.231000	0.029059
2.232000	0.028073
2.233000	0.011632
2.234000	0.011961
2.235000	0.010975
2.236000	-0.003164
2.237000	-0.004808
2.238000	-0.004808
2.239000	0.000782
2.240000	0.005056
2.241000	0.003083
2.242000	0.006371
2.243000	-0.008096
2.244000	-0.022893
2.245000	-0.007768
2.246000	0.000453
2.247000	-0.012700
2.248000	-0.018290
2.249000	-0.015001
2.250000	-0.011384
2.251000	-0.002507
2.252000	-0.001849
2.253000	0.003741
2.254000	0.000124
2.255000	0.014592
2.256000	0.008344
2.257000	0.012290
2.258000	0.002097
2.259000	-0.001191
2.260000	0.001768
2.261000	0.001439
2.262000	0.000124
2.263000	0.001439
2.264000	0.003741
2.265000	-0.003822
2.266000	-0.005137
2.267000	-0.005466
2.268000	-0.004808
2.269000	0.003412
2.270000	0.008015
2.271000	0.017551
2.272000	0.021497
2.273000	0.024127
2.274000	0.011632
2.275000	0.015249
2.276000	0.004398
2.277000	-0.011713
2.278000	-0.007110
2.279000	0.005056
2.280000	0.009002
2.281000	0.006043
2.282000	0.013276
2.283000	-0.013357
2.284000	-0.023879
2.285000	-0.017961
2.286000	-0.017961
2.287000	-0.008425
2.288000	0.003741
2.289000	0.024785
2.290000	0.027744
2.291000	0.014592
2.292000	-0.002507
2.293000	-0.014673
2.294000	-0.020262
2.295000	-0.023879
2.296000	-0.016317
2.297000	-0.010398
2.298000	0.001439
2.299000	0.020181
2.300000	0.040568
2.301000	0.041883
2.302000	0.047802
2.303000	0.042541
2.304000	0.015578
2.305000	-0.018947
2.306000	-0.028811
2.307000	-0.034730
2.308000	-0.029798
2.309000	-0.038676
2.310000	-0.020262
2.311000	-0.007110
2.312000	0.025771
2.313000	0.035636
2.314000	0.039581
2.315000	0.045500
2.316000	0.048130
2.317000	0.037280
2.318000	0.015578
2.319000	0.006700
2.320000	-0.005137
2.321000	-0.019605
2.322000	-0.022893
2.323000	-0.024537
2.324000	-0.020920
2.325000	-0.000863
2.326000	-0.001191
2.327000	-0.004479
2.328000	0.009331
2.329000	0.000782
2.330000	0.005056
2.331000	0.012290
2.332000	0.013276
2.333000	0.017551
2.334000	0.016236
2.335000	0.018866
2.336000	0.007358
2.337000	0.009002
2.338000	0.002426
2.339000	0.013276
2.340000	0.012948
2.341000	0.009002
2.342000	0.001110
2.343000	-0.006781
2.344000	-0.017303
2.345000	-0.022564
2.346000	-0.019934
2.347000	-0.024208
2.348000	-0.005795
2.349000	0.016893
2.350000	0.025114
2.351000	0.039910
2.352000	0.031690
2.353000	0.023470
2.354000	0.011303
2.355000	0.014920
2.356000	0.015249
2.357000	0.025114
2.358000	0.011632
2.359000	0.001439
2.360000	0.001439
2.361000	0.002426
2.362000	-0.008096
2.363000	-0.007768
2.364000	-0.009083
2.365000	-0.015330
2.366000	-0.015330
2.367000	-0.005795
2.368000	0.012290
2.369000	0.010646
2.370000	0.012619
2.371000	0.006043
2.372000	0.012290
2.373000	0.022154
2.374000	0.012290
2.375000	0.007358
2.376000	0.001439
2.377000	0.012948
2.378000	0.012290
2.379000	0.013605
2.380000	0.005385
2.381000	0.003083
2.382000	-0.013686
2.383000	-0.013029
2.384000	0.001110
2.385000	0.006371
2.386000	-0.002835
2.387000	0.003083
2.388000	0.002097
2.389000	0.008015
2.390000	0.004070
2.391000	-0.004808
2.392000	-0.006781
2.393000	-0.014015
2.394000	0.009331
2.395000	0.014263
2.396000	0.013934
2.397000	0.005385
2.398000	-0.004151
2.399000	-0.000863
2.400000	0.003741
2.401000	0.012290
2.402000	0.009988
2.403000	0.001110
2.404000	0.012948
2.405000	0.019853
2.406000	0.018209
2.407000	0.009331
2.408000	-0.003493
2.409000	-0.009412
2.410000	-0.007439
2.411000	0.000782
2.412000	0.010646
2.413000	0.022812
2.414000	0.003412
2.415000	0.004070
2.416000	0.020181
2.417000	0.012948
2.418000	0.011961
2.419000	0.009988
2.420000	-0.004479
2.421000	-0.017303
2.422000	-0.014015
2.423000	-0.024866
2.424000	-0.023550
2.425000	-0.009740
2.426000	0.002426
2.427000	0.008673
2.428000	0.005714
2.429000	0.004398
2.430000	0.001439
2.431000	-0.005137
2.432000	-0.016317
2.433000	-0.008096
2.434000	-0.010069
2.435000	-0.007110
2.436000	-0.000863
2.437000	0.005385
2.438000	0.010317
2.439000	0.014920
2.440000	0.012948
2.441000	0.011303
2.442000	0.000124
2.443000	-0.000205
2.444000	-0.005137
2.445000	-0.005795
2.446000	-0.009740
2.447000	-0.011713
2.448000	-0.002178
2.449000	0.010317
2.450000	0.015249
2.451000	0.017880
2.452000	0.001110
2.453000	-0.011713
2.454000	-0.000534
2.455000	0.003741
2.456000	0.007029
2.457000	0.007029
2.458000	-0.002507
2.459000	-0.004151
2.460000	-0.012700
2.461000	-0.026510
2.462000	-0.024866
2.463000	-0.036045
2.464000	-0.041635
2.465000	-0.015330
2.466000	-0.007110
2.467000	-0.003822
2.468000	-0.003164
2.469000	0.002097
2.470000	0.009002
2.471000	0.014592
2.472000	0.010975
2.473000	0.014263
2.474000	0.012948
2.475000	0.015249
2.476000	0.004070
2.477000	0.013276
2.478000	0.018209
2.479000	-0.003493
2.480000	-0.027825
2.481000	-0.018290
2.482000	-0.011713
2.483000	-0.015330
2.484000	-0.018618
2.485000	-0.017961
2.486000	0.004070
2.487000	0.016893
2.488000	0.009002
2.489000	-0.004151
2.490000	-0.012700
2.491000	-0.015001
2.492000	-0.022235
2.493000	-0.008425
2.494000	0.028073
2.495000	0.046486
2.496000	0.039910
2.497000	0.013605
2.498000	0.001768
2.499000	-0.004479
2.500000	-0.004151
2.501000	-0.007768
2.502000	-0.024208
2.503000	-0.028811
2.504000	-0.019605
2.505000	0.002754
2.506000	0.020839
2.507000	0.016564
2.508000	0.014920
2.509000	0.009659
2.510000	0.019853
2.511000	0.019195
2.512000	0.023141
2.513000	0.025114
2.514000	0.019524
2.515000	0.019853
2.516000	0.014920
2.517000	0.011303
2.518000	-0.001191
2.519000	-0.022564
2.520000	-0.019605
2.521000	-0.014673
2.522000	-0.014673
2.523000	-0.009083
2.524000	-0.007110
2.525000	0.003741
2.526000	0.005714
2.527000	0.008344
2.528000	0.007358
2.529000	0.016236
2.530000	0.016564
2.531000	0.019195
2.532000	0.019195
2.533000	0.026429
2.534000	0.032347
2.535000	0.023798
2.536000	0.020510
2.537000	0.011961
2.538000	0.000124
2.539000	0.000782
2.540000	-0.019605
2.541000	-0.022564
2.542000	-0.016974
2.543000	-0.014344
2.544000	-0.011056
2.545000	-0.006123
2.546000	-0.010727
2.547000	-0.004808
2.548000	-0.001849
2.549000	0.006043
2.550000	0.005714
2.551000	0.008673
2.552000	0.015249
2.553000	0.027744
2.554000	0.021168
2.555000	0.009988
2.556000	-0.001191
2.557000	-0.006781
2.558000	0.001439
2.559000	-0.002178
2.560000	0.000124
2.561000	-0.004479
2.562000	-0.004151
2.563000	-0.002835
2.564000	0.003412
2.565000	0.003412
2.566000	-0.001520
2.567000	0.005385
2.568000	0.004398
2.569000	-0.005466
2.570000	-0.002178
2.571000	0.007358
2.572000	-0.000863
2.573000	-0.002835
2.574000	0.003741
2.575000	0.004070
2.576000	0.000782
2.577000	0.001768
2.578000	-0.000863
2.579000	-0.010727
2.580000	-0.014344
2.581000	-0.017961
2.582000	-0.009740
2.583000	-0.012700
2.584000	-0.012700
2.585000	-0.011056
2.586000	0.003741
2.587000	0.010317
2.588000	0.018537
2.589000	0.030375
2.590000	0.020839
2.591000	0.017222
2.592000	0.017222
2.593000	0.008673
2.594000	-0.007110
2.595000	-0.004808
2.596000	0.000453
2.597000	0.000453
2.598000	0.005385
2.599000	0.007358
2.600000	-0.001191
2.601000	-0.001520
2.602000	-0.006781
2.603000	-0.006452
2.604000	-0.008096
2.605000	-0.001191
2.606000	0.008344
2.607000	0.018209
2.608000	0.020510
2.609000	0.012290
2.610000	0.016236
2.611000	0.008344
2.612000	-0.000205
2.613000	0.005056
2.614000	-0.001849
2.615000	-0.004479
2.616000	-0.007768
2.617000	0.003741
2.618000	-0.001191
2.619000	0.003412
2.620000	-0.007439
2.621000	-0.005795
2.622000	-0.004479
2.623000	-0.002507
2.624000	-0.002835
2.625000	-0.011713
2.626000	-0.005466
2.627000	0.000453
2.628000	0.001768
2.629000	0.000782
2.630000	0.021825
2.631000	0.026758
2.632000	0.021168
2.633000	0.015578
2.634000	0.012290
2.635000	0.001768
2.636000	0.005714
2.637000	-0.001849
2.638000	-0.002835
2.639000	0.003083
2.640000	0.000453
2.641000	0.016564
2.642000	0.021825
2.643000	0.012948
2.644000	0.010646
2.645000	-0.001520
2.646000	0.002097
2.647000	-0.007439
2.648000	-0.014673
2.649000	-0.022235
2.650000	-0.012700
2.651000	0.004070
2.652000	0.004398
2.653000	0.001768
2.654000	0.001439
2.655000	0.011961
2.656000	0.015249
2.657000	0.013276
2.658000	0.013934
2.659000	0.014263
2.660000	0.006700
2.661000	0.002426
2.662000	0.007687
2.663000	0.014263
2.664000	0.010317
2.665000	0.002097
2.666000	-0.006123
2.667000	-0.019934
2.668000	-0.019934
2.669000	-0.013357
2.670000	-0.006452
2.671000	0.004727
2.672000	0.009002
2.673000	0.015578
2.674000	0.031032
2.675000	0.027086
2.676000	0.023141
2.677000	0.007029
2.678000	0.003741
2.679000	0.001768
2.680000	-0.000534
2.681000	-0.005466
2.682000	0.002754
2.683000	-0.000534
2.684000	-0.006781
2.685000	-0.012371
2.686000	-0.021906
2.687000	-0.028154
2.688000	-0.023879
2.689000	-0.008096
2.690000	0.005385
2.691000	0.021825
2.692000	0.031032
2.693000	0.037608
2.694000	0.027744
2.695000	0.029388
2.696000	0.031690
2.697000	0.012290
2.698000	-0.004151
2.699000	-0.009083
2.700000	0.000782
2.701000	-0.003822
2.702000	0.002097
2.703000	0.000124
2.704000	-0.001520
2.705000	0.009331
2.706000	0.011961
2.707000	0.012619
2.708000	0.008344
2.709000	0.011632
2.710000	-0.002178
2.711000	-0.008425
2.712000	-0.015001
2.713000	-0.009412
2.714000	-0.011384
2.715000	-0.014015
2.716000	-0.004808
2.717000	0.000124
2.718000	0.012948
2.719000	0.006043
2.720000	-0.002178
2.721000	-0.008096
2.722000	-0.016317
2.723000	-0.023879
2.724000	-0.034401
2.725000	-0.036374
2.726000	-0.033744
2.727000	-0.009412
2.728000	0.005056
2.729000	0.007687
2.730000	-0.000205
2.731000	-0.001191
2.732000	0.017222
2.733000	0.014263
2.734000	0.014263
2.735000	0.023798
2.736000	0.033663
2.737000	0.034320
2.738000	0.033334
2.739000	0.032347
2.740000	0.022812
2.741000	0.002426
2.742000	-0.007768
2.743000	-0.015988
2.744000	-0.008754
2.745000	0.001768
2.746000	0.006371
2.747000	0.006371
2.748000	0.007029
2.749000	0.013934
2.750000	0.013605
2.751000	0.024456
2.752000	0.019524
2.753000	-0.005466
2.754000	-0.010398
2.755000	-0.006781
2.756000	-0.009412
2.757000	-0.006452
2.758000	-0.007439
2.759000	0.014592
2.760000	0.026100
2.761000	0.015578
2.762000	0.008344
2.763000	-0.004151
2.764000	-0.013357
2.765000	-0.010398
2.766000	-0.015988
2.767000	-0.017961
2.768000	-0.007768
2.769000	-0.009412
2.770000	-0.010727
2.771000	-0.006781
2.772000	-0.003493
2.773000	-0.004479
2.774000	0.005056
2.775000	0.012290
2.776000	0.016236
2.777000	0.022812
2.778000	0.035636
2.779000	0.015249
2.780000	0.005714
2.781000	-0.010069
2.782000	-0.009083
2.783000	-0.005466
2.784000	0.004398
2.785000	0.000453
2.786000	0.009659
2.787000	0.020181
2.788000	0.032347
2.789000	0.030046
2.790000	0.009002
2.791000	-0.004808
2.792000	-0.012371
2.793000	-0.004151
2.794000	-0.003493
2.795000	0.003083
2.796000	0.007029
2.797000	-0.001191
2.798000	-0.005466
2.799000	-0.006123
2.800000	-0.011384
2.801000	-0.013686
2.802000	-0.013357
2.803000	-0.017961
2.804000	-0.012700
2.805000	-0.007439
2.806000	-0.011713
2.807000	-0.000205
2.808000	0.005385
2.809000	0.000453
2.810000	0.003083
2.811000	0.004070
2.812000	0.014592
2.813000	0.007687
2.814000	0.002097
2.815000	-0.000534
2.816000	-0.002507
2.817000	-0.015659
2.818000	-0.038347
2.819000	-0.042622
2.820000	-0.034730
2.821000	-0.029469
2.822000	-0.019934
2.823000	-0.015001
2.824000	-0.006452
2.825000	0.006371
2.826000	0.017880
2.827000	0.006700
2.828000	-0.001520
2.829000	-0.008425
2.830000	-0.009083
2.831000	-0.001191
2.832000	0.001110
2.833000	0.009002
2.834000	0.003412
2.835000	0.004070
2.836000	0.003083
2.837000	-0.000205
2.838000	0.005056
2.839000	-0.001849
2.840000	-0.000863
2.841000	-0.007768
2.842000	0.002426
2.843000	0.009988
2.844000	-0.013686
2.845000	-0.020262
2.846000	-0.018947
2.847000	-0.026181
2.848000	-0.028811
2.849000	-0.036045
2.850000	-0.025195
2.851000	-0.011056
2.852000	-0.000534
2.853000	-0.004479
2.854000	-0.003822
2.855000	-0.003493
2.856000	0.000124
2.857000	0.001768
2.858000	0.003083
2.859000	0.007687
2.860000	0.013276
2.861000	0.016236
2.862000	0.011303
2.863000	0.004398
2.864000	-0.006781
2.865000	-0.002178
2.866000	-0.008754
2.867000	-0.005137
2.868000	-0.005137
2.869000	-0.009083
2.870000	-0.004479
2.871000	-0.006452
2.872000	-0.004479
2.873000	-0.007768
2.874000	-0.011384
2.875000	-0.006452
2.876000	-0.007110
2.877000	-0.001191
2.878000	0.001439
2.879000	0.024127
2.880000	0.016236
2.881000	0.015907
2.882000	0.020839
2.883000	0.020839
2.884000	-0.003493
2.885000	-0.012700
2.886000	-0.020591
2.887000	-0.011384
2.888000	-0.011384
2.889000	-0.001520
2.890000	-0.002835
2.891000	-0.004479
2.892000	-0.007768
2.893000	-0.011713
2.894000	-0.005466
2.895000	-0.008096
2.896000	-0.010727
2.897000	-0.002178
2.898000	-0.007439
2.899000	-0.006452
2.900000	0.010317
2.901000	0.008673
2.902000	0.006700
2.903000	0.004398
2.904000	-0.000863
2.905000	-0.008754
2.906000	-0.005795
2.907000	-0.002835
2.908000	-0.006781
2.909000	-0.003493
2.910000	-0.003164
2.911000	-0.002507
2.912000	-0.003164
2.913000	-0.000534
2.914000	0.000453
2.915000	-0.001849
2.916000	0.004070
2.917000	-0.000534
2.918000	-0.007439
2.919000	-0.009083
2.920000	-0.002178
2.921000	0.001110
2.922000	-0.007110
2.923000	-0.015001
2.924000	-0.016317
2.925000	-0.019276
2.926000	-0.011384
2.927000	-0.009083
2.928000	-0.007110
2.929000	-0.007768
2.930000	-0.016974
2.931000	-0.013686
2.932000	-0.003164
2.933000	0.007029
2.934000	0.003083
2.935000	0.000124
2.936000	0.009988
2.937000	0.008673
2.938000	0.002426
2.939000	-0.005137
2.940000	-0.006452
2.941000	-0.013357
2.942000	-0.012042
2.943000	-0.015330
2.944000	-0.013029
2.945000	-0.003493
2.946000	-0.009412
2.947000	-0.004151
2.948000	-0.013029
2.949000	-0.018618
2.950000	-0.010727
2.951000	-0.002178
2.952000	-0.004151
2.953000	0.005714
2.954000	0.007687
2.955000	0.016564
2.956000	0.013276
2.957000	0.000124
2.958000	0.000124
2.959000	0.003083
2.960000	0.000124
2.961000	-0.016317
2.962000	-0.005466
2.963000	-0.012700
2.964000	-0.008754
2.965000	-0.004151
2.966000	-0.003164
2.967000	-0.011384
2.968000	-0.008754
2.969000	-0.004479
2.970000	0.009002
2.971000	0.005056
2.972000	0.003083
2.973000	0.003412
2.974000	-0.002507
2.975000	-0.001191
2.976000	0.007687
2.977000	0.010975
2.978000	-0.001849
2.979000	-0.000863
2.980000	-0.006123
2.981000	-0.005466
2.982000	0.000453
2.983000	0.008344
2.984000	0.000124
2.985000	-0.006452
2.986000	-0.010398
2.987000	0.000453
2.988000	0.004398
2.989000	-0.000205
2.990000	0.004398
2.991000	-0.001520
2.992000	0.004070
2.993000	0.007687
2.994000	0.007029
2.995000	0.002426
2.996000	0.003741
2.997000	0.003741
2.998000	0.009002
2.999000	-0.002835
3.000000	0.000124
3.001000	0.005385
3.002000	0.003741
3.003000	0.001439
3.004000	0.005714
3.005000	0.004070
3.006000	-0.003493
3.007000	0.002754
3.008000	0.001439
3.009000	0.009002
3.010000	0.004727
3.011000	0.018537
3.012000	0.020181
3.013000	0.030046
3.014000	0.020510
3.015000	0.022483
3.016000	0.026758
3.017000	0.024785
3.018000	0.018537
3.019000	0.012619
3.020000	-0.002178
3.021000	-0.007110
3.022000	-0.007110
3.023000	-0.003493
3.024000	-0.011713
3.025000	-0.006452
3.026000	0.001439
3.027000	0.007687
3.028000	-0.000534
3.029000	0.001110
3.030000	0.005714
3.031000	0.014920
3.032000	0.012290
3.033000	0.011632
3.034000	0.009659
3.035000	0.009002
3.036000	0.014920
3.037000	0.010317
3.038000	0.011961
3.039000	0.009002
3.040000	-0.000863
3.041000	0.006043
3.042000	0.000453
3.043000	-0.002178
3.044000	-0.002507
3.045000	-0.006781
3.046000	-0.005795
3.047000	-0.002507
3.048000	0.008015
3.049000	0.009002
3.050000	0.003083
3.051000	-0.000205
3.052000	0.005714
3.053000	0.013605
3.054000	0.010317
3.055000	0.000453
3.056000	-0.003822
3.057000	0.002097
3.058000	0.003741
3.059000	0.009988
3.060000	0.011303
3.061000	-0.006781
3.062000	-0.012042
3.063000	-0.016974
3.064000	0.003083
3.065000	0.002426
3.066000	-0.001191
3.067000	-0.002178
3.068000	0.008015
3.069000	0.013605
3.070000	0.007029
3.071000	0.007687
3.072000	0.012619
3.073000	0.011632
3.074000	0.020839
3.075000	0.019524
3.076000	0.019853
3.077000	0.011303
3.078000	0.012948
3.079000	0.000782
3.080000	0.000453
3.081000	-0.004151
3.082000	-0.010727
3.083000	-0.006781
3.084000	-0.011384
3.085000	-0.017303
3.086000	-0.017303
3.087000	-0.011056
3.088000	-0.005466
3.089000	-0.011056
3.090000	-0.020262
3.091000	-0.022235
3.092000	-0.005466
3.093000	0.004398
3.094000	0.021497
3.095000	0.024785
3.096000	0.040239
3.097000	0.050103
3.098000	0.049117
3.099000	0.041225
3.100000	0.030375
3.101000	-0.003164
3.102000	-0.016974
3.103000	-0.035059
3.104000	-0.030127
3.105000	-0.022564
3.106000	-0.005795
3.107000	0.007029
3.108000	0.014920
3.109000	0.013605
3.110000	0.001110
3.111000	0.006700
3.112000	0.005714
3.113000	0.005385
3.114000	-0.001520
3.115000	0.006043
3.116000	0.012948
3.117000	0.013605
3.118000	0.015249
3.119000	0.014263
3.120000	0.007358
3.121000	0.003741
3.122000	0.000453
3.123000	0.008344
3.124000	0.002097
3.125000	-0.011713
3.126000	-0.028811
3.127000	-0.023222
3.128000	-0.004808
3.129000	-0.007768
3.130000	0.004070
3.131000	0.003083
3.132000	0.001768
3.133000	0.014263
3.134000	0.007029
3.135000	0.016893
3.136000	0.016564
3.137000	0.008344
3.138000	0.007687
3.139000	-0.001520
3.140000	-0.007110
3.141000	-0.011713
3.142000	-0.017303
3.143000	-0.016645
3.144000	-0.020262
3.145000	-0.009083
3.146000	0.000124
3.147000	0.000782
3.148000	0.005714
3.149000	0.005056
3.150000	0.001110
3.151000	0.002426
3.152000	0.007358
3.153000	0.006371
3.154000	0.006043
3.155000	-0.003822
3.156000	-0.001191
3.157000	0.001768
3.158000	-0.000205
3.159000	-0.004479
3.160000	0.003083
3.161000	0.002097
3.162000	-0.003822
3.163000	-0.005466
3.164000	-0.002178
3.165000	0.002426
3.166000	-0.013686
3.167000	-0.009740
3.168000	0.000124
3.169000	-0.000534
3.170000	0.002426
3.171000	0.006700
3.172000	0.006700
3.173000	0.002426
3.174000	0.001439
3.175000	0.012948
3.176000	0.009002
3.177000	0.005714
3.178000	0.000124
3.179000	-0.001520
3.180000	-0.020591
3.181000	-0.026181
3.182000	-0.016645
3.183000	-0.015659
3.184000	-0.015330
3.185000	-0.010727
3.186000	-0.000534
3.187000	0.006043
3.188000	0.014592
3.189000	0.016236
3.190000	0.028402
3.191000	0.027415
3.192000	0.017880
3.193000	0.008673
3.194000	0.011632
3.195000	0.015249
3.196000	0.015578
3.197000	0.012619
3.198000	0.004727
3.199000	0.005714
3.200000	0.006371
3.201000	0.011961
3.202000	0.011303
3.203000	0.006371
3.204000	-0.003493
3.205000	-0.009740
3.206000	-0.017632
3.207000	-0.001849
3.208000	-0.002507
3.209000	0.001439
3.210000	0.009988
3.211000	0.008673
3.212000	0.021825
3.213000	0.030046
3.214000	0.030703
3.215000	0.036293
3.216000	0.034978
3.217000	0.026100
3.218000	0.014592
3.219000	0.012619
3.220000	0.004070
3.221000	-0.004479
3.222000	-0.008425
3.223000	-0.015001
3.224000	-0.013029
3.225000	0.000782
3.226000	-0.002507
3.227000	0.005385
3.228000	0.020510
3.229000	0.026758
3.230000	0.035307
3.231000	0.027086
3.232000	0.023141
3.233000	0.019853
3.234000	0.003741
3.235000	-0.005795
3.236000	0.000124
3.237000	-0.001520
3.238000	-0.005137
3.239000	-0.005137
3.240000	-0.004808
3.241000	-0.007110
3.242000	-0.001849
3.243000	-0.007110
3.244000	-0.003493
3.245000	-0.005795
3.246000	-0.006452
3.247000	-0.002178
3.248000	-0.003822
3.249000	-0.000205
3.250000	0.016893
3.251000	0.026758
3.252000	0.032676
3.253000	0.019853
3.254000	0.018866
3.255000	0.011303
3.256000	0.015578
3.257000	0.012619
3.258000	0.007687
3.259000	0.010646
3.260000	0.013276
3.261000	0.009988
3.262000	0.011303
3.263000	0.000453
3.264000	-0.019276
3.265000	-0.022893
3.266000	-0.023879
3.267000	-0.020920
3.268000	-0.014673
3.269000	-0.008754
3.270000	0.004070
3.271000	0.003083
3.272000	0.003412
3.273000	0.007029
3.274000	0.002426
3.275000	0.006700
3.276000	0.008015
3.277000	0.000782
3.278000	-0.004479
3.279000	-0.004151
3.280000	-0.005137
3.281000	0.001768
3.282000	0.002426
3.283000	-0.006452
3.284000	-0.001520
3.285000	-0.006781
3.286000	-0.004151
3.287000	0.000453
3.288000	0.009988
3.289000	0.000782
3.290000	-0.014015
3.291000	-0.001191
3.292000	0.007029
3.293000	0.010317
3.294000	-0.008096
3.295000	-0.009740
3.296000	-0.007439
3.297000	-0.006123
3.298000	-0.014015
3.299000	-0.012700
3.300000	-0.023879
3.301000	-0.025523
3.302000	-0.033415
3.303000	-0.027496
3.304000	-0.021906
3.305000	-0.014344
3.306000	-0.005795
3.307000	0.000782
3.308000	-0.007110
3.309000	-0.005795
3.310000	-0.005137
3.311000	-0.003822
3.312000	-0.009412
3.313000	-0.007110
3.314000	-0.011384
3.315000	-0.000534
3.316000	0.001768
3.317000	-0.009740
3.318000	-0.034401
3.319000	-0.040977
3.320000	-0.028811
3.321000	-0.012042
3.322000	-0.017303
3.323000	-0.014015
3.324000	0.012619
3.325000	0.019524
3.326000	0.020510
3.327000	0.020510
3.328000	0.019195
3.329000	0.008015
3.330000	-0.001849
3.331000	-0.004479
3.332000	-0.025195
3.333000	-0.036374
3.334000	-0.037361
3.335000	-0.037032
3.336000	-0.039662
3.337000	-0.025852
3.338000	-0.021249
3.339000	-0.010069
3.340000	0.012619
3.341000	0.016893
3.342000	0.014592
3.343000	0.018537
3.344000	0.008015
3.345000	-0.001520
3.346000	-0.003164
3.347000	-0.009740
3.348000	-0.014015
3.349000	-0.011384
3.350000	-0.014344
3.351000	-0.011384
3.352000	-0.007110
3.353000	-0.007439
3.354000	-0.005137
3.355000	-0.002835
3.356000	0.000782
3.357000	0.010975
3.358000	0.009659
3.359000	0.009988
3.360000	0.002097
3.361000	-0.006123
3.362000	-0.015330
3.363000	-0.011713
3.364000	-0.015001
3.365000	-0.022235
3.366000	-0.021249
3.367000	-0.008754
3.368000	-0.009740
3.369000	-0.003164
3.370000	-0.005795
3.371000	-0.001191
3.372000	-0.002178
3.373000	-0.006123
3.374000	-0.012371
3.375000	-0.020920
3.376000	-0.017961
3.377000	-0.009083
3.378000	-0.012042
3.379000	-0.021249
3.380000	-0.019276
3.381000	-0.013357
3.382000	0.003412
3.383000	0.009002
3.384000	0.023798
3.385000	0.022154
3.386000	0.018537
3.387000	0.024456
3.388000	0.024127
3.389000	0.015907
3.390000	0.007687
3.391000	0.004727
3.392000	-0.001520
3.393000	0.003412
3.394000	0.003412
3.395000	0.003741
3.396000	-0.005795
3.397000	-0.010069
3.398000	-0.003822
3.399000	-0.004151
3.400000	0.001768
3.401000	-0.007110
3.402000	-0.005137
3.403000	-0.011713
3.404000	0.001110
3.405000	0.008673
3.406000	0.009988
3.407000	0.008015
3.408000	0.011961
3.409000	0.002426
3.410000	0.012948
3.411000	0.020181
3.412000	0.013605
3.413000	0.012619
3.414000	0.015249
3.415000	0.011961
3.416000	0.005385
3.417000	-0.002178
3.418000	0.002754
3.419000	-0.001191
3.420000	-0.009740
3.421000	-0.011056
3.422000	-0.017303
3.423000	-0.010069
3.424000	-0.004479
3.425000	0.010317
3.426000	0.019195
3.427000	0.027744
3.428000	0.033334
3.429000	0.028730
3.430000	0.032019
3.431000	0.033663
3.432000	0.018537
3.433000	0.000782
3.434000	-0.004151
3.435000	-0.000205
3.436000	0.006700
3.437000	0.006371
3.438000	0.002426
3.439000	0.003083
3.440000	-0.009083
3.441000	-0.015330
3.442000	-0.017961
3.443000	-0.005137
3.444000	-0.008096
3.445000	-0.013686
3.446000	-0.014015
3.447000	-0.020262
3.448000	-0.014673
3.449000	-0.005466
3.450000	-0.009740
3.451000	0.000453
3.452000	0.012290
3.453000	0.020181
3.454000	0.031032
3.455000	0.037937
3.456000	0.030375
3.457000	0.021168
3.458000	0.013605
3.459000	0.002754
3.460000	-0.001191
3.461000	-0.013357
3.462000	-0.012700
3.463000	-0.014015
3.464000	-0.015330
3.465000	-0.005466
3.466000	-0.001849
3.467000	-0.001191
3.468000	0.003412
3.469000	-0.000534
3.470000	0.004070
3.471000	0.008015
3.472000	0.004070
3.473000	0.007687
3.474000	0.003412
3.475000	0.004727
3.476000	0.012948
3.477000	0.021168
3.478000	0.009331
3.479000	0.012948
3.480000	0.008344
3.481000	0.005714
3.482000	0.003741
3.483000	-0.004479
3.484000	0.002426
3.485000	-0.005466
3.486000	-0.011384
3.487000	-0.009083
3.488000	-0.011384
3.489000	-0.014673
3.490000	-0.022893
3.491000	-0.017632
3.492000	-0.006123
3.493000	0.012619
3.494000	0.023141
3.495000	0.025114
3.496000	0.025771
3.497000	0.030703
3.498000	0.023798
3.499000	0.024456
3.500000	0.013276
3.501000	-0.005466
3.502000	-0.006123
3.503000	-0.007110
3.504000	-0.006781
3.505000	-0.002835
3.506000	-0.001849
3.507000	0.000782
3.508000	0.001768
3.509000	-0.003493
3.510000	0.003083
3.511000	0.004727
3.512000	0.010317
3.513000	0.007687
3.514000	0.017551
3.515000	0.011632
3.516000	0.011303
3.517000	0.002426
3.518000	-0.007768
3.519000	-0.002507
3.520000	-0.006123
3.521000	-0.017632
3.522000	-0.021906
3.523000	-0.017961
3.524000	-0.008096
3.525000	-0.002178
3.526000	-0.002507
3.527000	0.007687
3.528000	0.010317
3.529000	0.011961
3.530000	0.001110
3.531000	0.004398
3.532000	0.001768
3.533000	-0.003164
3.534000	0.004727
3.535000	0.003412
3.536000	0.003412
3.537000	0.015578
3.538000	0.023470
3.539000	0.033991
3.540000	0.025442
3.541000	0.016236
3.542000	0.027086
3.543000	0.016893
3.544000	0.015578
3.545000	-0.001191
3.546000	-0.002835
3.547000	-0.004479
3.548000	0.002097
3.549000	0.002754
3.550000	0.008344
3.551000	0.013605
3.552000	0.007687
3.553000	0.008344
3.554000	0.009002
3.555000	0.010317
3.556000	0.007029
3.557000	0.011303
3.558000	0.012619
3.559000	0.015249
3.560000	0.010646
3.561000	0.004070
3.562000	0.004398
3.563000	0.007358
3.564000	-0.001191
3.565000	-0.004808
3.566000	0.009331
3.567000	0.001768
3.568000	-0.010727
3.569000	-0.017961
3.570000	-0.011384
3.571000	0.015907
3.572000	0.017880
3.573000	0.030046
3.574000	0.034978
3.575000	0.021825
3.576000	0.018209
3.577000	0.018866
3.578000	0.005385
3.579000	-0.005795
3.580000	0.005056
3.581000	0.009002
3.582000	0.004398
3.583000	-0.004808
3.584000	0.014263
3.585000	0.015578
3.586000	0.009659
3.587000	0.013276
3.588000	0.011632
3.589000	0.014592
3.590000	0.010975
3.591000	0.014263
3.592000	0.019853
3.593000	0.013605
3.594000	0.016564
3.595000	0.006700
3.596000	-0.001849
3.597000	-0.000863
3.598000	-0.004479
3.599000	0.001110
3.600000	-0.001520
3.601000	-0.011056
3.602000	-0.015659
3.603000	-0.014344
3.604000	-0.014673
3.605000	-0.008425
3.606000	-0.013686
3.607000	-0.005466
3.608000	0.001439
3.609000	0.009331
3.610000	0.011632
3.611000	0.010975
3.612000	0.013605
3.613000	0.014263
3.614000	0.018209
3.615000	0.006043
3.616000	-0.004808
3.617000	-0.017303
3.618000	-0.011713
3.619000	-0.007439
3.620000	-0.006452
3.621000	-0.008096
3.622000	-0.003164
3.623000	0.007687
3.624000	0.009331
3.625000	-0.000863
3.626000	0.006043
3.627000	0.006043
3.628000	0.003412
3.629000	-0.002835
3.630000	-0.003493
3.631000	0.001768
3.632000	-0.006123
3.633000	-0.001520
3.634000	-0.002835
3.635000	0.004070
3.636000	0.004070
3.637000	0.005714
3.638000	0.001110
3.639000	-0.002178
3.640000	-0.013029
3.641000	-0.015659
3.642000	-0.014673
3.643000	-0.017303
3.644000	-0.015659
3.645000	-0.008425
3.646000	-0.003164
3.647000	0.002097
3.648000	0.005714
3.649000	0.004070
3.650000	0.007358
3.651000	0.006043
3.652000	-0.002178
3.653000	-0.010069
3.654000	-0.006452
3.655000	-0.008754
3.656000	-0.010069
3.657000	-0.007768
3.658000	-0.012042
3.659000	-0.014015
3.660000	-0.007439
3.661000	-0.024537
3.662000	-0.027825
3.663000	-0.021906
3.664000	-0.006452
3.665000	-0.012371
3.666000	-0.002507
3.667000	-0.005795
3.668000	-0.008754
3.669000	-0.005466
3.670000	0.004070
3.671000	0.013605
3.672000	0.022154
3.673000	0.033334
3.674000	0.023470
3.675000	0.018209
3.676000	0.026429
3.677000	0.018209
3.678000	0.015907
3.679000	0.009659
3.680000	0.002097
3.681000	0.009002
3.682000	0.003083
3.683000	-0.007768
3.684000	0.003083
3.685000	-0.001191
3.686000	-0.002835
3.687000	-0.000205
3.688000	0.007029
3.689000	0.009659
3.690000	0.004070
3.691000	0.012290
3.692000	0.010317
3.693000	0.009988
3.694000	0.009659
3.695000	0.000124
3.696000	-0.011713
3.697000	-0.011384
3.698000	-0.004151
3.699000	-0.011056
3.700000	-0.019605
3.701000	-0.032100
3.702000	-0.024866
3.703000	-0.014015
3.704000	-0.008425
3.705000	-0.006781
3.706000	-0.008096
3.707000	-0.007439
3.708000	0.001439
3.709000	0.011961
3.710000	0.015907
3.711000	0.018209
3.712000	0.004727
3.713000	0.000453
3.714000	-0.011384
3.715000	-0.019276
3.716000	-0.023550
3.717000	-0.012042
3.718000	-0.006452
3.719000	-0.000205
3.720000	0.004070
3.721000	0.001110
3.722000	0.001768
3.723000	-0.003822
3.724000	-0.007768
3.725000	-0.002507
3.726000	-0.008754
3.727000	-0.020920
3.728000	-0.029798
3.729000	-0.026510
3.730000	-0.023222
3.731000	-0.010398
3.732000	-0.004808
3.733000	-0.011713
3.734000	0.006371
3.735000	0.013605
3.736000	0.019195
3.737000	0.011961
3.738000	0.006043
3.739000	-0.004151
3.740000	-0.003493
3.741000	0.000453
3.742000	0.002426
3.743000	-0.011384
3.744000	-0.013357
3.745000	-0.018290
3.746000	-0.014673
3.747000	-0.003822
3.748000	0.000453
3.749000	0.002097
3.750000	-0.001191
3.751000	0.008673
3.752000	0.002426
3.753000	-0.002507
3.754000	0.003083
3.755000	0.003741
3.756000	0.003083
3.757000	0.008344
3.758000	0.000124
3.759000	-0.004151
3.760000	-0.011384
3.761000	-0.007439
3.762000	-0.003822
3.763000	0.007029
3.764000	0.002097
3.765000	-0.008096
3.766000	-0.014673
3.767000	-0.010069
3.768000	0.001768
3.769000	0.007687
3.770000	0.019195
3.771000	0.004070
3.772000	0.002426
3.773000	0.014263
3.774000	0.012619
3.775000	0.019524
3.776000	0.011961
3.777000	-0.007768
3.778000	-0.007768
3.779000	-0.002178
3.780000	0.004398
3.781000	0.001439
3.782000	-0.000863
3.783000	0.001439
3.784000	-0.000863
3.785000	0.002754
3.786000	0.004398
3.787000	0.004398
3.788000	0.001439
3.789000	-0.002507
3.790000	0.004727
3.791000	-0.001520
3.792000	-0.001849
3.793000	-0.007768
3.794000	-0.010727
3.795000	0.000453
3.796000	-0.004151
3.797000	-0.004808
3.798000	0.002754
3.799000	-0.001191
3.800000	0.001768
3.801000	0.002754
3.802000	0.004727
3.803000	0.000453
3.804000	0.001768
3.805000	-0.001520
3.806000	-0.001849
3.807000	0.004727
3.808000	0.005056
3.809000	-0.000205
3.810000	0.006043
3.811000	0.020510
3.812000	0.007029
3.813000	0.006371
3.814000	0.001439
3.815000	-0.017961
3.816000	-0.022235
3.817000	-0.023879
3.818000	-0.016645
3.819000	-0.010398
3.820000	-0.013029
3.821000	-0.006781
3.822000	-0.007110
3.823000	0.007687
3.824000	-0.000205
3.825000	0.005056
3.826000	0.005385
3.827000	0.009988
3.828000	0.009659
3.829000	0.006700
3.830000	0.009988
3.831000	0.018866
3.832000	0.004727
3.833000	0.001439
3.834000	-0.000863
3.835000	0.001768
3.836000	0.003412
3.837000	-0.001520
3.838000	0.000782
3.839000	-0.000534
3.840000	-0.000863
3.841000	-0.002835
3.842000	-0.013686
3.843000	-0.010727
3.844000	-0.000863
3.845000	-0.009740
3.846000	-0.004151
3.847000	-0.005795
3.848000	-0.006781
3.849000	0.000782
3.850000	-0.006123
3.851000	-0.008425
3.852000	-0.006452
3.853000	-0.008754
3.854000	0.008344
3.855000	0.012619
3.856000	0.023470
3.857000	0.021825
3.858000	0.020181
3.859000	0.006043
3.860000	-0.003822
3.861000	-0.001849
3.862000	-0.008096
3.863000	-0.014015
3.864000	-0.009083
3.865000	-0.013357
3.866000	-0.010398
3.867000	0.001439
3.868000	0.003741
3.869000	0.006700
3.870000	-0.002178
3.871000	-0.005795
3.872000	-0.008096
3.873000	-0.001191
3.874000	0.001110
3.875000	-0.003822
3.876000	-0.004808
3.877000	-0.008096
3.878000	0.001110
3.879000	0.004398
3.880000	0.005056
3.881000	0.003083
3.882000	0.001110
3.883000	0.005714
3.884000	0.012290
3.885000	0.019524
3.886000	0.020181
3.887000	0.018537
3.888000	0.008673
3.889000	0.007358
3.890000	-0.001849
3.891000	0.001110
3.892000	0.004727
3.893000	0.005385
3.894000	0.002426
3.895000	0.002097
3.896000	0.007687
3.897000	0.004727
3.898000	-0.000534
3.899000	-0.015330
3.900000	-0.016974
3.901000	-0.014344
3.902000	-0.007110
3.903000	-0.016645
3.904000	-0.008096
3.905000	-0.001520
3.906000	-0.003164
3.907000	0.007687
3.908000	0.000124
3.909000	0.004727
3.910000	0.001768
3.911000	0.011632
3.912000	0.010317
3.913000	0.014592
3.914000	0.006371
3.915000	0.004727
3.916000	0.007029
3.917000	0.008344
3.918000	-0.001191
3.919000	-0.000205
3.920000	0.006043
3.921000	0.002754
3.922000	0.003412
3.923000	0.013605
3.924000	0.010317
3.925000	0.004398
3.926000	0.007029
3.927000	-0.005466
3.928000	-0.010398
3.929000	-0.018618
3.930000	-0.028154
3.931000	-0.032757
3.932000	-0.033415
3.933000	-0.014673
3.934000	-0.000534
3.935000	0.001110
3.936000	0.021168
3.937000	0.023798
3.938000	0.035636
3.939000	0.034649
3.940000	0.031690
3.941000	0.019853
3.942000	0.015578
3.943000	0.005385
3.944000	0.008673
3.945000	0.006371
3.946000	0.005714
3.947000	0.001768
3.948000	0.009659
3.949000	-0.006452
3.950000	-0.004808
3.951000	-0.007768
3.952000	-0.003493
3.953000	-0.008425
3.954000	0.018537
3.955000	0.030703
3.956000	0.033005
3.957000	0.029388
3.958000	0.019195
3.959000	0.020510
3.960000	0.006700
3.961000	-0.011713
3.962000	-0.017632
3.963000	-0.018947
3.964000	-0.026839
3.965000	-0.031442
3.966000	-0.016645
3.967000	-0.020591
3.968000	-0.008096
3.969000	0.002426
3.970000	0.020510
3.971000	0.027086
3.972000	0.025114
3.973000	0.013934
3.974000	0.006043
3.975000	0.000453
3.976000	-0.014344
3.977000	-0.028483
3.978000	-0.005795
3.979000	0.011303
3.980000	0.017880
3.981000	0.009988
3.982000	-0.020262
3.983000	-0.032100
3.984000	-0.021249
3.985000	-0.029469
3.986000	-0.033744
3.987000	-0.023879
3.988000	-0.002507
3.989000	0.024785
3.990000	0.041883
3.991000	0.018209
3.992000	0.006700
3.993000	0.004070
3.994000	-0.013029
3.995000	-0.040320
3.996000	-0.029469
3.997000	-0.027825
3.998000	-0.026510
3.999000	-0.011056
4.000000	-0.005795
4.001000	0.005385
4.002000	0.004070
4.003000	0.004398
4.004000	0.001768
4.005000	0.020181
4.006000	0.030703
4.007000	0.018866
4.008000	0.013934
4.009000	-0.008754
4.010000	-0.017961
4.011000	-0.020920
4.012000	-0.008754
4.013000	-0.013686
4.014000	-0.014673
4.015000	-0.026510
4.016000	-0.013357
4.017000	0.009659
4.018000	0.016893
4.019000	0.017880
4.020000	0.022483
4.021000	0.029059
4.022000	0.034320
4.023000	0.017551
4.024000	0.015249
4.025000	-0.001849
4.026000	-0.027496
4.027000	-0.037689
4.028000	-0.031113
4.029000	-0.019605
4.030000	-0.020920
4.031000	-0.023222
4.032000	-0.000534
4.033000	0.006043
4.034000	0.034320
4.035000	0.037280
4.036000	0.018866
4.037000	0.027415
4.038000	0.014263
4.039000	0.025114
4.040000	0.017222
4.041000	0.010646
4.042000	0.009988
4.043000	0.004727
4.044000	0.037608
4.045000	0.047473
4.046000	0.012619
4.047000	0.001110
4.048000	-0.014673
4.049000	-0.031113
4.050000	-0.040977
4.051000	-0.061364
4.052000	-0.055445
4.053000	-0.028483
4.054000	-0.009083
4.055000	-0.017632
4.056000	-0.001520
4.057000	0.040897
4.058000	0.064571
4.059000	0.062598
4.060000	0.061283
4.061000	0.059310
4.062000	0.022483
4.063000	0.010317
4.064000	0.009988
4.065000	0.011632
4.066000	-0.018618
4.067000	-0.030127
4.068000	-0.025523
4.069000	-0.021578
4.070000	-0.016645
4.071000	-0.003822
4.072000	0.002426
4.073000	0.003741
4.074000	0.001110
4.075000	0.006700
4.076000	-0.000863
4.077000	0.013605
4.078000	0.005714
4.079000	-0.007768
4.080000	-0.013686
4.081000	-0.014015
4.082000	0.004727
4.083000	0.024127
4.084000	0.028730
4.085000	0.014592
4.086000	0.004070
4.087000	0.004727
4.088000	0.003741
4.089000	0.017551
4.090000	0.011961
4.091000	0.008344
4.092000	0.013605
4.093000	0.010975
4.094000	0.009002
4.095000	0.007029
4.096000	0.000782
4.097000	-0.006123
4.098000	-0.004808
4.099000	-0.008754
4.100000	0.002754
4.101000	0.016893
4.102000	0.017551
4.103000	0.006043
4.104000	-0.005795
4.105000	-0.012371
4.106000	-0.015659
4.107000	-0.023879
4.108000	-0.030784
4.109000	-0.029140
4.110000	-0.014673
4.111000	0.000453
4.112000	-0.001191
4.113000	-0.010069
4.114000	-0.021906
4.115000	-0.023879
4.116000	-0.030127
4.117000	-0.022235
4.118000	0.004727
4.119000	0.014920
4.120000	0.038266
4.121000	0.054378
4.122000	0.048788
4.123000	0.033334
4.124000	0.040239
4.125000	0.015249
4.126000	-0.020920
4.127000	-0.021249
4.128000	-0.014015
4.129000	-0.017303
4.130000	-0.022235
4.131000	-0.019605
4.132000	-0.018618
4.133000	-0.014673
4.134000	0.003741
4.135000	0.002097
4.136000	0.017222
4.137000	0.023470
4.138000	0.035636
4.139000	0.027744
4.140000	-0.001191
4.141000	-0.029140
4.142000	-0.031442
4.143000	-0.022893
4.144000	-0.014673
4.145000	-0.010069
4.146000	-0.021249
4.147000	-0.025195
4.148000	-0.011056
4.149000	0.013605
4.150000	0.020510
4.151000	0.030703
4.152000	0.028730
4.153000	0.026429
4.154000	0.023141
4.155000	0.006700
4.156000	0.011303
4.157000	0.009331
4.158000	-0.002178
4.159000	-0.023550
4.160000	-0.019605
4.161000	-0.013357
4.162000	-0.006123
4.163000	0.001110
4.164000	0.001439
4.165000	-0.007439
4.166000	-0.005466
4.167000	0.008344
4.168000	0.011632
4.169000	0.002426
4.170000	0.004070
4.171000	-0.000534
4.172000	0.021168
4.173000	0.023470
4.174000	0.001110
4.175000	-0.002178
4.176000	-0.005795
4.177000	-0.007110
4.178000	-0.004479
4.179000	-0.006452
4.180000	-0.021578
4.181000	-0.030127
4.182000	-0.047883
4.183000	-0.060706
4.184000	-0.115946
4.185000	-0.084052
4.186000	-0.039662
4.187000	0.021168
4.188000	0.057337
4.189000	0.077723
4.190000	0.075093
4.191000	0.061612
4.192000	0.050432
4.193000	0.044842
4.194000	0.020839
4.195000	-0.009740
4.196000	-0.037689
4.197000	-0.040977
4.198000	-0.022893
4.199000	-0.029140
4.200000	-0.011713
4.201000	-0.070571
4.202000	-0.072872
4.203000	-0.045581
4.204000	-0.033415
4.205000	0.003741
4.206000	0.039252
4.207000	0.093835
4.208000	0.130333
4.209000	0.160584
4.210000	0.118167
4.211000	0.078381
4.212000	0.048788
4.213000	0.041883
4.214000	-0.008754
4.215000	-0.021578
4.216000	-0.020591
4.217000	-0.000205
4.218000	-0.030456
4.219000	-0.061035
4.220000	-0.044266
4.221000	-0.016645
4.222000	0.016236
4.223000	0.056351
4.224000	0.057995
4.225000	0.045829
4.226000	0.054378
4.227000	0.057337
4.228000	0.067201
4.229000	0.053720
4.230000	0.007687
4.231000	-0.019934
4.232000	-0.019605
4.233000	0.002426
4.234000	0.007029
4.235000	-0.000863
4.236000	-0.010398
4.237000	-0.005137
4.238000	-0.000863
4.239000	0.002097
4.240000	-0.011713
4.241000	-0.031113
4.242000	-0.031442
4.243000	-0.020262
4.244000	-0.024208
4.245000	-0.010727
4.246000	-0.005137
4.247000	-0.005466
4.248000	-0.005466
4.249000	0.000782
4.250000	0.004070
4.251000	0.004070
4.252000	-0.001849
4.253000	-0.009083
4.254000	-0.015001
4.255000	-0.025852
4.256000	-0.017961
4.257000	-0.019934
4.258000	-0.023550
4.259000	-0.014673
4.260000	-0.004151
4.261000	-0.006452
4.262000	0.003412
4.263000	-0.003493
4.264000	-0.014344
4.265000	-0.019276
4.266000	-0.008754
4.267000	-0.002507
4.268000	0.005385
4.269000	-0.008754
4.270000	-0.016645
4.271000	-0.006452
4.272000	-0.002178
4.273000	0.000453
4.274000	-0.016974
4.275000	-0.019276
4.276000	-0.015001
4.277000	-0.009740
4.278000	-0.003493
4.279000	-0.003822
4.280000	0.004070
4.281000	-0.007439
4.282000	-0.004479
4.283000	-0.010069
4.284000	-0.034072
4.285000	-0.053144
4.286000	-0.059391
4.287000	-0.026181
4.288000	-0.016974
4.289000	-0.009412
4.290000	0.004727
4.291000	0.028402
4.292000	0.033663
4.293000	0.018209
4.294000	0.015578
4.295000	0.009988
4.296000	0.014592
4.297000	0.019195
4.298000	-0.000205
4.299000	0.007029
4.300000	0.026429
4.301000	0.047144
4.302000	0.058324
4.303000	0.046815
4.304000	0.023470
4.305000	0.015249
4.306000	0.010975
4.307000	-0.011713
4.308000	-0.035059
4.309000	-0.030456
4.310000	-0.010069
4.311000	-0.000863
4.312000	0.009988
4.313000	-0.016645
4.314000	-0.009083
4.315000	0.008344
4.316000	0.016236
4.317000	0.022812
4.318000	0.012619
4.319000	0.007687
4.320000	-0.001191
4.321000	-0.022235
4.322000	-0.045581
4.323000	-0.027496
4.324000	-0.031442
4.325000	-0.034401
4.326000	-0.049855
4.327000	-0.034401
4.328000	-0.035388
4.329000	-0.000863
4.330000	0.013605
4.331000	0.042541
4.332000	0.057666
4.333000	0.043856
4.334000	0.040897
4.335000	0.040239
4.336000	0.017222
4.337000	-0.001191
4.338000	-0.006452
4.339000	-0.029798
4.340000	-0.036045
4.341000	-0.026181
4.342000	-0.011384
4.343000	-0.016317
4.344000	0.008015
4.345000	0.017222
4.346000	0.010317
4.347000	0.022154
4.348000	0.043856
4.349000	0.035307
4.350000	0.024127
4.351000	0.005385
4.352000	-0.027167
4.353000	-0.006781
4.354000	-0.004808
4.355000	-0.017303
4.356000	0.006700
4.357000	0.014920
4.358000	0.026429
4.359000	0.032676
4.360000	0.028730
4.361000	0.030046
4.362000	0.009331
4.363000	-0.006781
4.364000	-0.005466
4.365000	-0.006452
4.366000	0.003083
4.367000	0.002426
4.368000	-0.009412
4.369000	-0.017632
4.370000	-0.012700
4.371000	-0.022893
4.372000	-0.029798
4.373000	-0.015001
4.374000	0.024456
4.375000	0.017880
4.376000	0.019524
4.377000	0.021497
4.378000	0.019524
4.379000	0.015907
4.380000	0.023798
4.381000	0.000782
4.382000	-0.015330
4.383000	-0.034401
4.384000	-0.041635
4.385000	-0.018947
4.386000	-0.005137
4.387000	0.003741
4.388000	0.001110
4.389000	0.012948
4.390000	0.034978
4.391000	0.063584
4.392000	0.081669
4.393000	0.085944
4.394000	0.087588
4.395000	0.056351
4.396000	0.041554
4.397000	0.036622
4.398000	0.010975
4.399000	-0.007110
4.400000	-0.029798
4.401000	-0.022235
4.402000	-0.002835
4.403000	-0.015001
4.404000	-0.024866
4.405000	-0.032757
4.406000	-0.010398
4.407000	0.004070
4.408000	0.006043
4.409000	-0.044923
4.410000	-0.005466
4.411000	0.008344
4.412000	0.041554
4.413000	0.022154
4.414000	0.023798
4.415000	0.006700
4.416000	0.004398
4.417000	0.022154
4.418000	0.018209
4.419000	0.011303
4.420000	0.006043
4.421000	-0.000534
4.422000	-0.007439
4.423000	-0.010069
4.424000	-0.005466
4.425000	-0.020591
4.426000	-0.016974
4.427000	-0.010069
4.428000	-0.000534
4.429000	0.004398
4.430000	0.018866
4.431000	0.043527
4.432000	0.026100
4.433000	0.010646
4.434000	0.019524
4.435000	0.012619
4.436000	0.012948
4.437000	0.011303
4.438000	0.018866
4.439000	0.023470
4.440000	0.031361
4.441000	0.005056
4.442000	0.007029
4.443000	-0.002835
4.444000	0.003741
4.445000	-0.003493
4.446000	-0.006452
4.447000	-0.018947
4.448000	-0.024537
4.449000	-0.009412
4.450000	-0.003493
4.451000	0.014263
4.452000	0.000782
4.453000	-0.007768
4.454000	-0.010727
4.455000	-0.006123
4.456000	0.006700
4.457000	0.009002
4.458000	0.007029
4.459000	0.011632
4.460000	0.014920
4.461000	0.006700
4.462000	-0.009412
4.463000	-0.003493
4.464000	0.007029
4.465000	0.022812
4.466000	0.022483
4.467000	0.017880
4.468000	0.023141
4.469000	0.011961
4.470000	-0.005795
4.471000	-0.029140
4.472000	-0.025852
4.473000	0.000124
4.474000	0.016893
4.475000	0.030703
4.476000	0.024456
4.477000	0.007029
4.478000	0.026429
4.479000	0.002754
4.480000	-0.017961
4.481000	-0.053144
4.482000	-0.040320
4.483000	-0.033415
4.484000	-0.047883
4.485000	-0.059720
4.486000	-0.047883
4.487000	-0.025523
4.488000	-0.000863
4.489000	0.035636
4.490000	0.030046
4.491000	0.028073
4.492000	0.043856
4.493000	0.035307
4.494000	0.035307
4.495000	0.016236
4.496000	-0.019605
4.497000	-0.032428
4.498000	-0.015988
4.499000	-0.038018
4.500000	-0.031771
4.501000	-0.010727
4.502000	-0.005137
4.503000	-0.023550
4.504000	-0.021249
4.505000	-0.015988
4.506000	-0.012371
4.507000	-0.021578
4.508000	-0.037689
4.509000	-0.052486
4.510000	-0.033415
4.511000	-0.004808
4.512000	0.003412
4.513000	-0.005795
4.514000	-0.021906
4.515000	-0.010398
4.516000	0.009659
4.517000	0.015249
4.518000	0.016564
4.519000	-0.001191
4.520000	-0.003493
4.521000	-0.010727
4.522000	-0.015659
4.523000	-0.027496
4.524000	-0.053144
4.525000	-0.093916
4.526000	-0.075831
4.527000	-0.052157
4.528000	-0.026839
4.529000	-0.002178
4.530000	0.012290
4.531000	0.005056
4.532000	0.005385
4.533000	0.021168
4.534000	0.020181
4.535000	0.006700
4.536000	-0.011713
4.537000	-0.007439
4.538000	-0.005137
4.539000	-0.006452
4.540000	-0.002507
4.541000	-0.005137
4.542000	-0.022893
4.543000	-0.054459
4.544000	-0.085367
4.545000	-0.091943
4.546000	-0.067282
4.547000	-0.057747
4.548000	-0.034072
4.549000	-0.011713
4.550000	0.002754
4.551000	0.009659
4.552000	0.017880
4.553000	0.029388
4.554000	0.034320
4.555000	-0.001849
4.556000	-0.016645
4.557000	-0.029798
4.558000	-0.023550
4.559000	-0.036374
4.560000	-0.025195
4.561000	0.018866
4.562000	0.019524
4.563000	0.000124
4.564000	0.009659
4.565000	-0.023550
4.566000	-0.048869
4.567000	-0.069255
4.568000	-0.046567
4.569000	-0.023222
4.570000	-0.014015
4.571000	-0.018947
4.572000	-0.002835
4.573000	0.016236
4.574000	0.023470
4.575000	0.003412
4.576000	-0.018947
4.577000	-0.034072
4.578000	-0.036703
4.579000	-0.018618
4.580000	-0.023879
4.581000	-0.027496
4.582000	-0.005795
4.583000	-0.011384
4.584000	-0.023222
4.585000	-0.020920
4.586000	-0.010727
4.587000	-0.013686
4.588000	-0.006123
4.589000	0.003412
4.590000	-0.000863
4.591000	-0.013029
4.592000	-0.023550
4.593000	-0.013029
4.594000	-0.013686
4.595000	-0.024537
4.596000	-0.037689
4.597000	-0.021249
4.598000	-0.021578
4.599000	-0.020920
4.600000	-0.006452
4.601000	-0.009412
4.602000	-0.005137
4.603000	-0.029140
4.604000	-0.035059
4.605000	-0.007110
4.606000	0.029388
4.607000	0.025442
4.608000	0.007687
4.609000	0.010317
4.610000	0.014920
4.611000	0.038595
4.612000	0.013934
4.613000	-0.000863
4.614000	-0.011384
4.615000	-0.002835
4.616000	0.008673
4.617000	-0.003822
4.618000	-0.024208
4.619000	-0.038676
4.620000	-0.035717
4.621000	-0.031771
4.622000	-0.032100
4.623000	-0.047225
4.624000	-0.038676
4.625000	-0.020262
4.626000	-0.007768
4.627000	-0.006781
4.628000	0.021825
4.629000	0.017880
4.630000	0.026758
4.631000	0.043856
4.632000	0.074435
4.633000	0.053720
4.634000	0.035964
4.635000	0.032676
4.636000	0.012290
4.637000	0.010975
4.638000	0.007687
4.639000	-0.009083
4.640000	-0.001849
4.641000	-0.011713
4.642000	-0.010727
4.643000	-0.001520
4.644000	0.004070
4.645000	0.037937
4.646000	0.040568
4.647000	0.030046
4.648000	0.021497
4.649000	0.024127
4.650000	0.014263
4.651000	0.006371
4.652000	-0.007768
4.653000	-0.030127
4.654000	-0.047225
4.655000	-0.019934
4.656000	-0.025852
4.657000	-0.023222
4.658000	-0.028483
4.659000	-0.008425
4.660000	0.008673
4.661000	0.010317
4.662000	0.018866
4.663000	0.029388
4.664000	0.045500
4.665000	0.042212
4.666000	0.019853
4.667000	0.007029
4.668000	0.016893
4.669000	0.004398
4.670000	0.015907
4.671000	-0.002507
4.672000	-0.021578
4.673000	-0.017961
4.674000	-0.012042
4.675000	-0.014344
4.676000	-0.002178
4.677000	0.003412
4.678000	0.013934
4.679000	0.013605
4.680000	0.038266
4.681000	0.043527
4.682000	0.034649
4.683000	0.024127
4.684000	0.010317
4.685000	0.023470
4.686000	0.037280
4.687000	0.031690
4.688000	0.015907
4.689000	0.023141
4.690000	0.014263
4.691000	0.000124
4.692000	0.019524
4.693000	0.024785
4.694000	0.019195
4.695000	0.011961
4.696000	0.001110
4.697000	-0.004808
4.698000	-0.002835
4.699000	0.001768
4.700000	0.006371
4.701000	0.009002
4.702000	-0.002835
4.703000	0.014920
4.704000	0.031361
4.705000	-0.012700
4.706000	-0.009740
4.707000	-0.010398
4.708000	-0.012042
4.709000	0.001439
4.710000	0.001768
4.711000	0.005385
4.712000	0.013934
4.713000	0.012290
4.714000	0.015578
4.715000	0.024127
4.716000	0.018537
4.717000	-0.003164
4.718000	0.004727
4.719000	0.009988
4.720000	0.010646
4.721000	0.013934
4.722000	-0.002178
4.723000	0.002426
4.724000	-0.001191
4.725000	0.005385
4.726000	-0.019276
4.727000	-0.001849
4.728000	-0.001191
4.729000	-0.020920
4.730000	-0.008425
4.731000	0.009002
4.732000	0.030046
4.733000	0.039581
4.734000	0.048130
4.735000	0.043198
4.736000	0.041883
4.737000	0.036293
4.738000	0.002426
4.739000	0.007358
4.740000	0.007029
4.741000	-0.005795
4.742000	-0.009412
4.743000	-0.020591
4.744000	-0.022893
4.745000	-0.012371
4.746000	-0.008425
4.747000	0.001110
4.748000	0.001110
4.749000	-0.004479
4.750000	0.002754
4.751000	-0.007110
4.752000	0.005056
4.753000	0.022483
4.754000	0.008344
4.755000	0.014592
4.756000	0.013605
4.757000	0.001439
4.758000	0.015249
4.759000	0.014263
4.760000	0.005714
4.761000	-0.000534
4.762000	-0.013029
4.763000	0.003083
4.764000	0.023798
4.765000	0.037608
4.766000	0.050432
4.767000	0.032019
4.768000	0.018537
4.769000	0.005056
4.770000	0.000124
4.771000	-0.009412
4.772000	0.003412
4.773000	-0.002835
4.774000	0.002097
4.775000	-0.001191
4.776000	0.011303
4.777000	0.018866
4.778000	0.031690
4.779000	0.026100
4.780000	0.009331
4.781000	0.008673
4.782000	-0.002178
4.783000	-0.017303
4.784000	-0.019934
4.785000	-0.003164
4.786000	-0.011056
4.787000	0.000124
4.788000	0.001768
4.789000	-0.004808
4.790000	-0.001849
4.791000	-0.005137
4.792000	-0.017632
4.793000	-0.022564
4.794000	-0.021906
4.795000	-0.018290
4.796000	-0.020591
4.797000	-0.003164
4.798000	0.009659
4.799000	0.010975
4.800000	0.002097
4.801000	0.021497
4.802000	0.023470
4.803000	0.034978
4.804000	0.023141
4.805000	0.009988
4.806000	0.014920
4.807000	0.015249
4.808000	0.004398
4.809000	-0.026181
4.810000	-0.020920
4.811000	-0.020591
4.812000	-0.007768
4.813000	-0.000205
4.814000	0.017222
4.815000	0.019524
4.816000	0.016236
4.817000	0.005714
4.818000	-0.010727
4.819000	-0.011056
4.820000	0.001110
4.821000	-0.001520
4.822000	-0.006452
4.823000	0.004070
4.824000	0.000782
4.825000	0.001439
4.826000	0.000124
4.827000	0.000453
4.828000	0.004398
4.829000	0.003741
4.830000	0.006043
4.831000	0.012948
4.832000	0.011961
4.833000	0.015907
4.834000	0.011632
4.835000	0.013605
4.836000	0.015907
4.837000	0.000782
4.838000	0.003412
4.839000	0.009331
4.840000	-0.018290
4.841000	-0.009412
4.842000	-0.012042
4.843000	-0.006452
4.844000	-0.013357
4.845000	-0.006781
4.846000	-0.010069
4.847000	-0.016974
4.848000	-0.012371
4.849000	-0.004479
4.850000	0.002097
4.851000	0.009331
4.852000	0.000782
4.853000	-0.007439
4.854000	-0.016645
4.855000	0.007358
4.856000	0.000124
4.857000	0.011961
4.858000	0.018209
4.859000	0.045829
4.860000	0.042212
4.861000	0.023141
4.862000	0.027415
4.863000	0.011632
4.864000	0.010317
4.865000	-0.014673
4.866000	-0.023222
4.867000	-0.025523
4.868000	-0.030456
4.869000	-0.010398
4.870000	0.005056
4.871000	-0.006452
4.872000	0.009988
4.873000	-0.003493
4.874000	-0.013357
4.875000	-0.008754
4.876000	0.006371
4.877000	0.023470
4.878000	0.014263
4.879000	0.001110
4.880000	0.006043
4.881000	0.016236
4.882000	0.007358
4.883000	0.005385
4.884000	0.007687
4.885000	0.008015
4.886000	0.019853
4.887000	0.012290
4.888000	0.015907
4.889000	0.029717
4.890000	0.014592
4.891000	-0.004479
4.892000	-0.021906
4.893000	-0.030127
4.894000	-0.010727
4.895000	-0.010069
4.896000	-0.002507
4.897000	0.000782
4.898000	0.024127
4.899000	0.037280
4.900000	0.035307
4.901000	0.030046
4.902000	0.030375
4.903000	0.025114
4.904000	0.036293
4.905000	0.013276
4.906000	0.013934
4.907000	0.019524
4.908000	0.008015
4.909000	-0.010398
4.910000	-0.036703
4.911000	-0.021249
4.912000	-0.017303
4.913000	-0.010727
4.914000	-0.013357
4.915000	-0.003493
4.916000	-0.003822
4.917000	-0.011384
4.918000	-0.018290
4.919000	-0.007110
4.920000	-0.001191
4.921000	-0.014015
4.922000	-0.009083
4.923000	0.001439
4.924000	-0.002178
4.925000	0.009988
4.926000	0.001110
4.927000	-0.001520
4.928000	-0.001520
4.929000	-0.005795
4.930000	-0.012371
4.931000	-0.005795
4.932000	-0.007439
4.933000	0.012619
4.934000	0.004398
4.935000	0.009659
4.936000	0.015249
4.937000	-0.005795
4.938000	0.007687
4.939000	0.005714
4.940000	0.003412
4.941000	0.019524
4.942000	-0.001520
4.943000	-0.010727
4.944000	-0.000534
4.945000	0.001110
4.946000	-0.003822
4.947000	0.006371
4.948000	0.010646
4.949000	-0.001849
4.950000	-0.006781
4.951000	-0.006123
4.952000	-0.007768
4.953000	-0.017632
4.954000	-0.026839
4.955000	-0.023222
4.956000	-0.000534
4.957000	-0.002178
4.958000	-0.004479
4.959000	-0.002835
4.960000	0.013934
4.961000	0.040239
4.962000	0.036622
4.963000	0.046486
4.964000	0.021825
4.965000	0.010317
4.966000	-0.001520
4.967000	-0.015330
4.968000	-0.023222
4.969000	-0.041306
4.970000	-0.035717
4.971000	-0.028811
4.972000	-0.004479
4.973000	0.009988
4.974000	0.020510
4.975000	0.021168
4.976000	0.015578
4.977000	0.009002
4.978000	-0.004479
4.979000	-0.002835
4.980000	-0.000205
4.981000	-0.013029
4.982000	-0.017632
4.983000	-0.011713
4.984000	0.004398
4.985000	0.032676
4.986000	0.031690
4.987000	0.015578
4.988000	0.003741
4.989000	-0.006452
4.990000	-0.028811
4.991000	-0.053801
4.992000	-0.060377
4.993000	-0.036703
4.994000	-0.009412
4.995000	0.002426
4.996000	0.009331
4.997000	0.013605
4.998000	0.005385
4.999000	0.003741
5.000000	0.005056
5.001000	-0.005795
5.002000	-0.011713
5.003000	0.000124
5.004000	0.006043
5.005000	0.015578
5.006000	0.010975
5.007000	0.014592
5.008000	0.013605
5.009000	0.009331
5.010000	-0.008096
5.011000	-0.015001
5.012000	-0.020591
5.013000	-0.026181
5.014000	-0.015988
5.015000	-0.000205
5.016000	-0.004808
5.017000	-0.009740
5.018000	-0.013686
5.019000	-0.012042
5.020000	-0.010069
5.021000	-0.008096
5.022000	-0.004151
5.023000	-0.002507
5.024000	-0.003164
5.025000	0.004398
5.026000	0.006700
5.027000	0.013605
5.028000	0.008673
5.029000	0.011303
5.030000	0.024127
5.031000	0.027415
5.032000	0.021825
5.033000	0.033005
5.034000	0.011632
5.035000	-0.003822
5.036000	-0.029798
5.037000	-0.031442
5.038000	-0.029798
5.039000	-0.034730
5.040000	-0.027496
5.041000	-0.008754
5.042000	-0.003493
5.043000	0.012948
5.044000	0.004727
5.045000	-0.009083
5.046000	-0.022235
5.047000	-0.027167
5.048000	-0.012042
5.049000	-0.022235
5.050000	-0.014344
5.051000	-0.005466
5.052000	0.023470
5.053000	0.025771
5.054000	0.026429
5.055000	0.032019
5.056000	0.036293
5.057000	0.021497
5.058000	0.016893
5.059000	0.001439
5.060000	-0.015330
5.061000	-0.031113
5.062000	-0.017961
5.063000	-0.021249
5.064000	-0.017632
5.065000	-0.008096
5.066000	0.000453
5.067000	0.021497
5.068000	0.047802
5.069000	0.043856
5.070000	0.033334
5.071000	0.044185
5.072000	0.023141
5.073000	0.013934
5.074000	-0.013029
5.075000	-0.019605
5.076000	-0.020262
5.077000	-0.017303
5.078000	-0.006123
5.079000	-0.029140
5.080000	-0.009083
5.081000	0.002426
5.082000	-0.002835
5.083000	-0.007439
5.084000	-0.000205
5.085000	-0.016645
5.086000	-0.020591
5.087000	-0.017961
5.088000	-0.024866
5.089000	-0.020920
5.090000	-0.010069
5.091000	0.011632
5.092000	0.013276
5.093000	0.010975
5.094000	0.001110
5.095000	0.006371
5.096000	0.011961
5.097000	0.017880
5.098000	0.010646
5.099000	0.008344
5.100000	0.009331
5.101000	0.008673
5.102000	0.017222
5.103000	0.003741
5.104000	-0.002178
5.105000	-0.028483
5.106000	-0.066625
5.107000	-0.067282
5.108000	-0.045581
5.109000	-0.021578
5.110000	-0.008425
5.111000	0.006371
5.112000	0.014592
5.113000	0.031361
5.114000	0.041554
5.115000	0.032676
5.116000	0.024456
5.117000	0.009988
5.118000	0.006043
5.119000	0.015578
5.120000	-0.010727
5.121000	-0.009083
5.122000	-0.008096
5.123000	-0.013686
5.124000	-0.030784
5.125000	-0.032428
5.126000	-0.028483
5.127000	-0.010398
5.128000	-0.002835
5.129000	0.007687
5.130000	0.021825
5.131000	0.026429
5.132000	0.033334
5.133000	0.014920
5.134000	0.007358
5.135000	0.000453
5.136000	-0.000863
5.137000	-0.025523
5.138000	-0.052486
5.139000	-0.037032
5.140000	-0.035717
5.141000	-0.004808
5.142000	-0.001849
5.143000	0.007687
5.144000	0.009659
5.145000	0.010646
5.146000	0.012619
5.147000	0.022812
5.148000	0.019524
5.149000	0.010646
5.150000	-0.007110
5.151000	-0.009412
5.152000	0.002426
5.153000	0.008673
5.154000	0.006043
5.155000	0.008673
5.156000	0.021497
5.157000	0.039252
5.158000	0.048459
5.159000	0.035964
5.160000	0.009002
5.161000	-0.020591
5.162000	-0.043608
5.163000	-0.052815
5.164000	-0.059062
5.165000	-0.040320
5.166000	-0.006781
5.167000	0.025442
5.168000	0.023798
5.169000	0.023798
5.170000	0.043527
5.171000	0.051418
5.172000	0.038595
5.173000	0.011961
5.174000	-0.002178
5.175000	-0.009083
5.176000	-0.015001
5.177000	-0.015659
5.178000	-0.019276
5.179000	-0.023879
5.180000	0.013605
5.181000	0.014920
5.182000	0.014263
5.183000	0.028402
5.184000	0.016893
5.185000	0.014592
5.186000	0.000782
5.187000	0.001768
5.188000	-0.009740
5.189000	-0.020920
5.190000	-0.014015
5.191000	0.007358
5.192000	0.008015
5.193000	0.005385
5.194000	0.013605
5.195000	0.006371
5.196000	-0.009740
5.197000	-0.008425
5.198000	-0.022564
5.199000	-0.019605
5.200000	-0.012700
5.201000	0.007687
5.202000	0.014920
5.203000	0.018209
5.204000	0.012619
5.205000	0.016893
5.206000	0.004398
5.207000	0.008344
5.208000	0.010646
5.209000	-0.002178
5.210000	-0.015988
5.211000	-0.004808
5.212000	0.011303
5.213000	0.019524
5.214000	0.006043
5.215000	0.003412
5.216000	0.015907
5.217000	0.030703
5.218000	0.040897
5.219000	0.026758
5.220000	0.018209
5.221000	-0.006123
5.222000	-0.012371
5.223000	0.008015
5.224000	0.009331
5.225000	0.008344
5.226000	0.005056
5.227000	0.007687
5.228000	0.003741
5.229000	0.000453
5.230000	0.008344
5.231000	0.009659
5.232000	0.013934
5.233000	0.011632
5.234000	0.006043
5.235000	0.000453
5.236000	-0.011056
5.237000	0.016564
5.238000	0.025114
5.239000	0.011303
5.240000	-0.002178
5.241000	-0.012371
5.242000	-0.029798
5.243000	-0.021578
5.244000	-0.021249
5.245000	-0.007439
5.246000	-0.003822
5.247000	0.009988
5.248000	0.003741
5.249000	0.027086
5.250000	0.035636
5.251000	0.024785
5.252000	0.031361
5.253000	0.017222
5.254000	0.001439
5.255000	0.006371
5.256000	0.032019
5.257000	0.036622
5.258000	0.027086
5.259000	0.018537
5.260000	0.018866
5.261000	0.005385
5.262000	-0.002835
5.263000	-0.007768
5.264000	-0.003164
5.265000	-0.019276
5.266000	-0.018947
5.267000	-0.027167
5.268000	-0.019605
5.269000	-0.012371
5.270000	-0.002507
5.271000	-0.005466
5.272000	-0.005466
5.273000	0.012290
5.274000	0.009659
5.275000	0.013605
5.276000	0.028402
5.277000	0.023141
5.278000	0.014592
5.279000	0.020510
5.280000	0.020181
5.281000	0.020510
5.282000	0.008015
5.283000	0.008673
5.284000	0.020181
5.285000	0.008015
5.286000	-0.005137
5.287000	-0.022564
5.288000	-0.023222
5.289000	-0.025195
5.290000	-0.015001
5.291000	0.004070
5.292000	0.002754
5.293000	0.000453
5.294000	-0.025852
5.295000	-0.035717
5.296000	-0.029140
5.297000	-0.004479
5.298000	-0.004808
5.299000	0.010646
5.300000	0.031361
5.301000	0.018537
5.302000	0.010646
5.303000	0.014263
5.304000	-0.005137
5.305000	0.000124
5.306000	0.009002
5.307000	0.016564
5.308000	0.007687
5.309000	0.006043
5.310000	0.015907
5.311000	0.011961
5.312000	-0.001849
5.313000	-0.010727
5.314000	-0.008425
5.315000	-0.003822
5.316000	0.000782
5.317000	-0.001191
5.318000	-0.001849
5.319000	0.005385
5.320000	-0.003822
5.321000	-0.008754
5.322000	-0.007439
5.323000	-0.005466
5.324000	-0.005466
5.325000	-0.014673
5.326000	-0.005795
5.327000	-0.004151
5.328000	0.000124
5.329000	-0.004808
5.330000	-0.002507
5.331000	-0.006123
5.332000	-0.005466
5.333000	-0.026181
5.334000	-0.027825
5.335000	-0.007439
5.336000	0.011961
5.337000	0.028073
5.338000	0.034978
5.339000	0.035964
5.340000	0.035964
5.341000	0.043198
5.342000	0.046157
5.343000	0.027415
5.344000	0.008673
5.345000	-0.010398
5.346000	-0.010727
5.347000	-0.005466
5.348000	-0.004808
5.349000	0.005056
5.350000	-0.012042
5.351000	-0.005137
5.352000	-0.005137
5.353000	-0.004808
5.354000	-0.012371
5.355000	-0.005137
5.356000	0.011632
5.357000	0.019195
5.358000	0.019195
5.359000	0.025771
5.360000	0.008673
5.361000	0.002754
5.362000	0.000453
5.363000	-0.009083
5.364000	-0.015659
5.365000	-0.007439
5.366000	-0.001849
5.367000	0.000782
5.368000	0.000782
5.369000	0.004398
5.370000	0.008673
5.371000	0.001768
5.372000	0.006043
5.373000	-0.004808
5.374000	-0.011384
5.375000	-0.005795
5.376000	0.005385
5.377000	-0.003822
5.378000	-0.013686
5.379000	-0.023222
5.380000	-0.014344
5.381000	-0.007439
5.382000	0.005385
5.383000	0.013934
5.384000	-0.002835
5.385000	0.000782
5.386000	0.003412
5.387000	0.025114
5.388000	0.021168
5.389000	0.009002
5.390000	0.002754
5.391000	0.008344
5.392000	-0.001520
5.393000	-0.015659
5.394000	-0.017303
5.395000	-0.005137
5.396000	0.009331
5.397000	0.021497
5.398000	0.023798
5.399000	0.030375
5.400000	0.026758
5.401000	0.034320
5.402000	0.025771
5.403000	0.000124
5.404000	0.001110
5.405000	-0.015001
5.406000	-0.021906
5.407000	-0.031442
5.408000	-0.031113
5.409000	-0.027496
5.410000	-0.023222
5.411000	-0.012371
5.412000	-0.007768
5.413000	0.010317
5.414000	0.033991
5.415000	0.020839
5.416000	0.000782
5.417000	-0.006123
5.418000	-0.020591
5.419000	-0.001191
5.420000	-0.009412
5.421000	-0.018290
5.422000	-0.021906
5.423000	-0.008425
5.424000	0.010975
5.425000	0.002097
5.426000	0.021825
5.427000	0.017551
5.428000	0.005714
5.429000	0.011632
5.430000	0.012290
5.431000	0.013605
5.432000	0.006043
5.433000	0.007687
5.434000	0.007029
5.435000	0.014263
5.436000	0.023798
5.437000	0.026758
5.438000	0.014920
5.439000	-0.005466
5.440000	-0.014673
5.441000	-0.026181
5.442000	-0.019605
5.443000	-0.017303
5.444000	-0.004479
5.445000	0.013934
5.446000	0.015249
5.447000	0.009988
5.448000	0.015907
5.449000	0.018537
5.450000	0.012619
5.451000	0.009988
5.452000	0.001439
5.453000	0.004070
5.454000	0.008015
5.455000	0.001768
5.456000	-0.003164
5.457000	-0.006452
5.458000	0.000453
5.459000	-0.005466
5.460000	-0.016645
5.461000	-0.036703
5.462000	-0.041964
5.463000	-0.002507
5.464000	0.028402
5.465000	0.030703
5.466000	0.015249
5.467000	0.009331
5.468000	-0.004808
5.469000	0.006700
5.470000	-0.005137
5.471000	-0.011056
5.472000	-0.019934
5.473000	-0.011056
5.474000	0.004727
5.475000	-0.002507
5.476000	-0.018290
5.477000	-0.012371
5.478000	-0.019605
5.479000	0.002426
5.480000	0.011961
5.481000	0.031690
5.482000	0.027086
5.483000	0.026100
5.484000	0.029388
5.485000	0.035307
5.486000	0.013605
5.487000	-0.007439
5.488000	-0.005466
5.489000	-0.010398
5.490000	0.002097
5.491000	0.000782
5.492000	0.018209
5.493000	0.042212
5.494000	0.059639
5.495000	0.050432
5.496000	0.034978
5.497000	0.034978
5.498000	0.028730
5.499000	0.023798
5.500000	0.021168
5.501000	0.011961
5.502000	-0.010398
5.503000	-0.034401
5.504000	-0.038347
5.505000	-0.027825
5.506000	-0.016317
5.507000	-0.019934
5.508000	-0.007439
5.509000	0.004398
5.510000	0.004070
5.511000	-0.008096
5.512000	0.003083
5.513000	-0.000863
5.514000	0.000453
5.515000	0.003741
5.516000	0.002097
5.517000	0.008015
5.518000	0.018209
5.519000	0.009988
5.520000	-0.001520
5.521000	-0.002507
5.522000	-0.021906
5.523000	-0.030127
5.524000	-0.012371
5.525000	-0.026181
5.526000	-0.021906
5.527000	-0.019605
5.528000	-0.010069
5.529000	0.003083
5.530000	0.012290
5.531000	0.017551
5.532000	0.016236
5.533000	0.006043
5.534000	0.003741
5.535000	0.015907
5.536000	0.016564
5.537000	0.007687
5.538000	0.000124
5.539000	-0.009740
5.540000	-0.006452
5.541000	-0.004479
5.542000	-0.007439
5.543000	-0.017961
5.544000	-0.012042
5.545000	-0.006123
5.546000	0.011961
5.547000	0.006700
5.548000	0.003083
5.549000	-0.004151
5.550000	-0.002178
5.551000	0.005056
5.552000	0.009002
5.553000	0.005714
5.554000	0.005056
5.555000	0.016236
5.556000	0.015907
5.557000	0.019195
5.558000	0.016893
5.559000	0.016564
5.560000	0.002426
5.561000	-0.020262
5.562000	-0.031113
5.563000	-0.034072
5.564000	-0.044923
5.565000	-0.034072
5.566000	-0.021249
5.567000	-0.025195
5.568000	-0.023879
5.569000	-0.013357
5.570000	-0.007110
5.571000	-0.004151
5.572000	-0.001849
5.573000	-0.001191
5.574000	0.011303
5.575000	0.008673
5.576000	0.021168
5.577000	0.009659
5.578000	-0.001849
5.579000	-0.003822
5.580000	-0.025195
5.581000	-0.027825
5.582000	-0.029140
5.583000	-0.022564
5.584000	-0.016317
5.585000	-0.002835
5.586000	-0.000863
5.587000	-0.014015
5.588000	-0.008425
5.589000	-0.001849
5.590000	0.014592
5.591000	0.005056
5.592000	-0.001520
5.593000	0.003741
5.594000	0.005056
5.595000	-0.004479
5.596000	-0.016974
5.597000	-0.004479
5.598000	-0.013357
5.599000	-0.012371
5.600000	-0.010727
5.601000	-0.015001
5.602000	0.001439
5.603000	0.002426
5.604000	-0.010069
5.605000	-0.016974
5.606000	-0.022235
5.607000	-0.018947
5.608000	-0.021578
5.609000	-0.043279
5.610000	-0.037689
5.611000	-0.037361
5.612000	-0.033086
5.613000	-0.019276
5.614000	-0.011056
5.615000	0.002754
5.616000	0.004070
5.617000	-0.003493
5.618000	0.001768
5.619000	-0.001849
5.620000	-0.008096
5.621000	-0.017632
5.622000	-0.012371
5.623000	-0.011713
5.624000	-0.010727
5.625000	-0.006781
5.626000	-0.009412
5.627000	-0.015659
5.628000	-0.015659
5.629000	-0.011384
5.630000	0.003412
5.631000	0.001110
5.632000	0.001768
5.633000	0.013934
5.634000	0.026429
5.635000	0.033005
5.636000	0.031032
5.637000	0.030703
5.638000	0.026429
5.639000	0.019195
5.640000	0.006043
5.641000	-0.007768
5.642000	-0.025195
5.643000	-0.042293
5.644000	-0.094903
5.645000	-0.096218
5.646000	-0.060706
5.647000	-0.026839
5.648000	-0.003493
5.649000	0.024456
5.650000	0.052076
5.651000	0.045500
5.652000	0.030375
5.653000	0.019524
5.654000	0.025442
5.655000	0.007687
5.656000	-0.003822
5.657000	-0.002835
5.658000	-0.000863
5.659000	0.012948
5.660000	0.019524
5.661000	0.011632
5.662000	0.008344
5.663000	-0.009740
5.664000	0.000124
5.665000	-0.030127
5.666000	-0.025852
5.667000	-0.028483
5.668000	-0.023222
5.669000	-0.025195
5.670000	-0.015330
5.671000	-0.002178
5.672000	0.006371
5.673000	0.022154
5.674000	0.027086
5.675000	0.016564
5.676000	0.033334
5.677000	0.012619
5.678000	0.002426
5.679000	0.011303
5.680000	-0.001520
5.681000	-0.003164
5.682000	0.008673
5.683000	-0.002507
5.684000	-0.004808
5.685000	-0.007110
5.686000	-0.001849
5.687000	-0.001520
5.688000	-0.008425
5.689000	-0.008425
5.690000	0.004727
5.691000	0.009659
5.692000	0.019524
5.693000	0.016564
5.694000	0.010646
5.695000	0.011961
5.696000	0.009002
5.697000	-0.008096
5.698000	-0.001520
5.699000	-0.003822
5.700000	0.000453
5.701000	0.001110
5.702000	0.004727
5.703000	0.002097
5.704000	0.004398
5.705000	-0.002835
5.706000	-0.011384
5.707000	0.007687
5.708000	0.003412
5.709000	0.003412
5.710000	0.001439
5.711000	-0.003164
5.712000	-0.000863
5.713000	0.000453
5.714000	0.008015
5.715000	0.003741
5.716000	0.003083
5.717000	-0.001191
5.718000	-0.000534
5.719000	-0.016645
5.720000	-0.015001
5.721000	-0.021249
5.722000	-0.035388
5.723000	-0.038018
5.724000	-0.023550
5.725000	-0.028483
5.726000	-0.016974
5.727000	0.002097
5.728000	0.007358
5.729000	0.018866
5.730000	0.036622
5.731000	0.026429
5.732000	0.000453
5.733000	0.000453
5.734000	0.004398
5.735000	0.003412
5.736000	0.017222
5.737000	0.012290
5.738000	0.015578
5.739000	0.001768
5.740000	-0.017632
5.741000	-0.039991
5.742000	-0.053472
5.743000	-0.055774
5.744000	-0.038347
5.745000	-0.031442
5.746000	-0.023222
5.747000	-0.019605
5.748000	-0.018947
5.749000	0.014263
5.750000	0.020510
5.751000	0.030375
5.752000	0.031032
5.753000	0.015249
5.754000	-0.001191
5.755000	0.008673
5.756000	0.013276
5.757000	0.019524
5.758000	0.009988
5.759000	-0.008754
5.760000	-0.017961
5.761000	-0.014015
5.762000	-0.014673
5.763000	-0.016645
5.764000	-0.034401
5.765000	-0.032428
5.766000	-0.033744
5.767000	-0.056103
5.768000	-0.044266
5.769000	-0.050513
5.770000	-0.026510
5.771000	-0.005795
5.772000	0.003412
5.773000	0.042869
5.774000	0.055035
5.775000	0.037608
5.776000	0.031032
5.777000	0.032347
5.778000	0.000782
5.779000	-0.004479
5.780000	-0.014673
5.781000	-0.012700
5.782000	-0.021578
5.783000	-0.015988
5.784000	-0.002178
5.785000	0.014920
5.786000	0.014920
5.787000	0.018209
5.788000	0.007029
5.789000	0.013276
5.790000	0.009002
5.791000	0.007029
5.792000	0.002426
5.793000	-0.000205
5.794000	-0.009412
5.795000	-0.029798
5.796000	-0.012042
5.797000	-0.008096
5.798000	-0.000534
5.799000	0.008344
5.800000	0.016236
5.801000	0.033991
5.802000	0.034978
5.803000	0.023141
5.804000	0.017880
5.805000	0.005056
5.806000	-0.008754
5.807000	-0.011056
5.808000	-0.015330
5.809000	-0.015988
5.810000	-0.016645
5.811000	-0.018618
5.812000	-0.011384
5.813000	0.004070
5.814000	0.023141
5.815000	0.034978
5.816000	0.030703
5.817000	0.029388
5.818000	0.020181
5.819000	0.013605
5.820000	0.010975
5.821000	-0.005137
5.822000	-0.006452
5.823000	0.000124
5.824000	0.004070
5.825000	0.007029
5.826000	-0.002835
5.827000	0.004070
5.828000	-0.001849
5.829000	-0.010069
5.830000	-0.006452
5.831000	-0.011713
5.832000	-0.009083
5.833000	0.007687
5.834000	0.025771
5.835000	0.041554
5.836000	0.031690
5.837000	0.032347
5.838000	0.028073
5.839000	0.011961
5.840000	-0.009740
5.841000	-0.026839
5.842000	-0.031113
5.843000	-0.017961
5.844000	-0.017961
5.845000	-0.006123
5.846000	0.002426
5.847000	0.011303
5.848000	0.024456
5.849000	0.008673
5.850000	0.011303
5.851000	-0.006452
5.852000	-0.008096
5.853000	-0.016974
5.854000	-0.003493
5.855000	-0.004479
5.856000	-0.003822
5.857000	0.009988
5.858000	0.010646
5.859000	0.002097
5.860000	0.005714
5.861000	0.014592
5.862000	0.013934
5.863000	0.040239
5.864000	0.025442
5.865000	0.014263
5.866000	0.002097
5.867000	0.002097
5.868000	0.005714
5.869000	-0.000534
5.870000	-0.001191
5.871000	-0.002178
5.872000	-0.002178
5.873000	0.001439
5.874000	0.008344
5.875000	0.006371
5.876000	-0.005466
5.877000	0.003412
5.878000	0.011961
5.879000	0.016564
5.880000	0.012948
5.881000	0.006043
5.882000	0.017880
5.883000	0.001110
5.884000	0.004727
5.885000	0.006371
5.886000	0.005056
5.887000	0.007029
5.888000	0.008673
5.889000	0.018537
5.890000	0.024785
5.891000	0.038266
5.892000	0.021825
5.893000	0.017551
5.894000	0.010317
5.895000	0.001768
5.896000	0.009331
5.897000	0.008344
5.898000	0.003412
5.899000	0.002426
5.900000	0.019853
5.901000	0.003412
5.902000	0.010646
5.903000	0.015907
5.904000	0.002426
5.905000	-0.002507
5.906000	0.010646
5.907000	0.008015
5.908000	0.000124
5.909000	-0.010069
5.910000	0.001110
5.911000	0.008015
5.912000	0.010975
5.913000	0.011303
5.914000	0.003741
5.915000	0.011961
5.916000	0.009659
5.917000	0.001439
5.918000	0.004398
5.919000	-0.000205
5.920000	0.006043
5.921000	0.021825
5.922000	0.025114
5.923000	0.020181
5.924000	0.024127
5.925000	0.013276
5.926000	0.002426
5.927000	0.011632
5.928000	0.017222
5.929000	0.011961
5.930000	0.014920
5.931000	0.004398
5.932000	0.002097
5.933000	0.006043
5.934000	0.007358
5.935000	0.009002
5.936000	0.008344
5.937000	-0.011713
5.938000	-0.016645
5.939000	-0.023550
5.940000	-0.028483
5.941000	-0.038347
5.942000	-0.046896
5.943000	-0.055116
5.944000	-0.043937
5.945000	-0.026181
5.946000	-0.010727
5.947000	0.006043
5.948000	0.012948
5.949000	0.013605
5.950000	0.003741
5.951000	0.018537
5.952000	0.013605
5.953000	-0.004151
5.954000	-0.009412
5.955000	-0.005466
5.956000	-0.011384
5.957000	-0.006452
5.958000	0.003412
5.959000	0.013276
5.960000	0.008015
5.961000	0.002097
5.962000	-0.005466
5.963000	-0.017303
5.964000	-0.027825
5.965000	-0.038676
5.966000	-0.033086
5.967000	-0.033086
5.968000	-0.018947
5.969000	-0.013357
5.970000	-0.005137
5.971000	-0.000205
5.972000	0.000124
5.973000	0.002097
5.974000	-0.012371
5.975000	-0.034401
5.976000	-0.041964
5.977000	-0.032757
5.978000	-0.034730
5.979000	-0.026510
5.980000	-0.018947
5.981000	-0.006781
5.982000	0.010975
5.983000	0.009002
5.984000	0.014263
5.985000	0.024456
5.986000	0.010975
5.987000	-0.005137
5.988000	-0.006123
5.989000	0.002426
5.990000	0.000782
5.991000	0.003083
5.992000	0.003412
5.993000	0.000782
5.994000	-0.007439
5.995000	-0.022893
5.996000	-0.006452
5.997000	-0.015330
5.998000	-0.025195
5.999000	-0.032757
6.000000	-0.030784
6.001000	-0.014015
6.002000	-0.004808
6.003000	0.004398
6.004000	0.004727
6.005000	-0.007768
6.006000	-0.006452
6.007000	-0.001191
6.008000	-0.000534
6.009000	0.002097
6.010000	0.007029
6.011000	-0.004151
6.012000	0.002097
6.013000	-0.005137
6.014000	-0.025852
6.015000	-0.033086
6.016000	-0.027496
6.017000	-0.014673
6.018000	-0.010727
6.019000	-0.009412
6.020000	0.006043
6.021000	0.017551
6.022000	0.023470
6.023000	0.021497
6.024000	0.015578
6.025000	0.017880
6.026000	0.030375
6.027000	0.031690
6.028000	0.019524
6.029000	-0.002835
6.030000	-0.026181
6.031000	-0.018290
6.032000	-0.012042
6.033000	-0.002835
6.034000	0.003741
6.035000	0.022483
6.036000	0.024127
6.037000	0.016564
6.038000	0.021497
6.039000	0.011632
6.040000	0.008015
6.041000	-0.001849
6.042000	-0.011056
6.043000	-0.009412
6.044000	-0.010727
6.045000	0.002097
6.046000	0.009659
6.047000	0.012619
6.048000	0.014263
6.049000	0.007029
6.050000	0.007687
6.051000	0.011961
6.052000	0.011303
6.053000	0.005385
6.054000	0.008673
6.055000	0.009988
6.056000	0.010317
6.057000	0.012619
6.058000	0.017222
6.059000	0.016564
6.060000	0.006043
6.061000	0.004398
6.062000	0.002426
6.063000	0.005385
6.064000	-0.001520
6.065000	-0.005466
6.066000	-0.012371
6.067000	0.001768
6.068000	0.005385
6.069000	0.004727
6.070000	0.012619
6.071000	0.025114
6.072000	0.037608
6.073000	0.040568
6.074000	0.031690
6.075000	0.030046
6.076000	0.018209
6.077000	0.014592
6.078000	0.009002
6.079000	0.007358
6.080000	0.005714
6.081000	0.001768
6.082000	0.006700
6.083000	0.014263
6.084000	0.005056
6.085000	0.014920
6.086000	0.020181
6.087000	0.021497
6.088000	0.020181
6.089000	0.006371
6.090000	0.011632
6.091000	0.008344
6.092000	0.000453
6.093000	0.017222
6.094000	0.015578
6.095000	0.020181
6.096000	0.014920
6.097000	0.016564
6.098000	0.012948
6.099000	0.014592
6.100000	0.018866
6.101000	0.010975
6.102000	0.007358
6.103000	0.005056
6.104000	-0.025195
6.105000	-0.028154
6.106000	-0.019276
6.107000	-0.005795
6.108000	0.021168
6.109000	0.025442
6.110000	0.039252
6.111000	0.048130
6.112000	0.071147
6.113000	0.058981
6.114000	0.048788
6.115000	0.022812
6.116000	0.002097
6.117000	-0.014344
6.118000	-0.044594
6.119000	-0.041306
6.120000	-0.021578
6.121000	-0.003493
6.122000	0.013605
6.123000	0.021825
6.124000	0.055693
6.125000	0.073778
6.126000	0.070818
6.127000	0.055035
6.128000	0.034320
6.129000	0.020510
6.130000	0.029388
6.131000	0.008673
6.132000	-0.006781
6.133000	-0.011713
6.134000	-0.005137
6.135000	0.008015
6.136000	0.011961
6.137000	0.016893
6.138000	0.015907
