LabVIEW Measurement	
Writer_Version	2
Reader_Version	2
Separator	Tab
Decimal_Separator	.
Multi_Headings	Yes
X_Columns	One
Time_Pref	Absolute
Operator	absf624
Date	2017/04/21
Time	15:16:58.919673930034676291
***End_of_Header***	
	
Channels	1	
Samples	1000	
Date	2017/04/21	
Time	15:16:58.919673930034676291	
Y_Unit_Label	Volts	
X_Dimension	Time	
X0	0.0000000000000000E+0	
Delta_X	0.001000	
***End_of_Header***		
X_Value	Voltage	Comment
0.000000	0.003741
0.001000	0.004727
0.002000	0.004070
0.003000	0.014592
0.004000	0.024785
0.005000	0.015907
0.006000	-0.005137
0.007000	-0.019605
0.008000	0.001439
0.009000	0.018866
0.010000	0.016236
0.011000	-0.007768
0.012000	-0.030456
0.013000	-0.023222
0.014000	0.007687
0.015000	0.014592
0.016000	0.010317
0.017000	-0.006781
0.018000	-0.017303
0.019000	0.006371
0.020000	0.017222
0.021000	0.013605
0.022000	0.008344
0.023000	0.015578
0.024000	0.025771
0.025000	0.026100
0.026000	0.010646
0.027000	0.015578
0.028000	-0.001849
0.029000	-0.009740
0.030000	-0.004479
0.031000	-0.007768
0.032000	-0.015001
0.033000	-0.005466
0.034000	-0.018290
0.035000	-0.024866
0.036000	-0.012371
0.037000	0.007358
0.038000	0.008344
0.039000	-0.002507
0.040000	-0.001849
0.041000	0.006371
0.042000	0.030046
0.043000	0.049774
0.044000	0.038266
0.045000	0.023470
0.046000	-0.012700
0.047000	-0.012371
0.048000	-0.003822
0.049000	-0.003164
0.050000	-0.028154
0.051000	-0.037689
0.052000	-0.032428
0.053000	-0.007439
0.054000	0.017880
0.055000	0.012619
0.056000	0.012290
0.057000	-0.009740
0.058000	-0.004479
0.059000	0.018537
0.060000	0.020839
0.061000	-0.008096
0.062000	-0.027167
0.063000	-0.020591
0.064000	-0.002507
0.065000	0.016564
0.066000	0.003083
0.067000	-0.007768
0.068000	-0.017961
0.069000	-0.000205
0.070000	0.018866
0.071000	0.023470
0.072000	0.006371
0.073000	-0.017632
0.074000	-0.003164
0.075000	0.008344
0.076000	0.021497
0.077000	0.019524
0.078000	-0.010398
0.079000	-0.008096
0.080000	0.008015
0.081000	0.024785
0.082000	0.031361
0.083000	0.016236
0.084000	-0.009083
0.085000	-0.015659
0.086000	-0.011056
0.087000	-0.005137
0.088000	-0.011384
0.089000	-0.010069
0.090000	-0.022893
0.091000	-0.004808
0.092000	0.002754
0.093000	-0.006452
0.094000	-0.010069
0.095000	-0.003164
0.096000	0.003412
0.097000	0.020839
0.098000	0.048459
0.099000	0.051747
0.100000	0.037280
0.101000	0.018866
0.102000	0.006043
0.103000	0.022154
0.104000	0.027415
0.105000	0.024456
0.106000	-0.007110
0.107000	-0.017303
0.108000	-0.004808
0.109000	0.014592
0.110000	0.016564
0.111000	-0.005137
0.112000	-0.022893
0.113000	-0.018947
0.114000	-0.000205
0.115000	0.005056
0.116000	0.005056
0.117000	-0.024866
0.118000	-0.035388
0.119000	-0.015659
0.120000	0.016893
0.121000	0.029059
0.122000	0.019195
0.123000	-0.013686
0.124000	-0.007439
0.125000	-0.003164
0.126000	-0.005137
0.127000	-0.021249
0.128000	-0.033415
0.129000	-0.029140
0.130000	-0.020920
0.131000	0.019524
0.132000	0.024456
0.133000	0.014592
0.134000	0.009988
0.135000	-0.001849
0.136000	0.009002
0.137000	0.016564
0.138000	0.015907
0.139000	-0.005137
0.140000	-0.011056
0.141000	0.015907
0.142000	0.027086
0.143000	0.029059
0.144000	-0.014344
0.145000	-0.030784
0.146000	-0.034730
0.147000	-0.020591
0.148000	-0.010727
0.149000	-0.012700
0.150000	-0.012042
0.151000	-0.011384
0.152000	-0.007110
0.153000	0.016893
0.154000	0.024785
0.155000	0.008344
0.156000	-0.017303
0.157000	-0.019605
0.158000	0.002754
0.159000	0.014263
0.160000	0.035964
0.161000	0.013934
0.162000	-0.001191
0.163000	0.021168
0.164000	-0.005466
0.165000	-0.002507
0.166000	-0.013029
0.167000	-0.018947
0.168000	-0.022564
0.169000	0.005056
0.170000	0.035307
0.171000	0.038266
0.172000	-0.017632
0.173000	-0.025523
0.174000	-0.030456
0.175000	-0.006781
0.176000	0.008673
0.177000	-0.000534
0.178000	-0.018947
0.179000	-0.034072
0.180000	-0.001520
0.181000	0.026429
0.182000	0.031361
0.183000	0.009659
0.184000	-0.013357
0.185000	0.003741
0.186000	0.005385
0.187000	0.015907
0.188000	0.003412
0.189000	-0.009740
0.190000	-0.016317
0.191000	-0.017303
0.192000	0.011303
0.193000	0.020510
0.194000	0.005056
0.195000	-0.005795
0.196000	-0.006452
0.197000	0.009331
0.198000	0.022154
0.199000	0.014263
0.200000	0.004398
0.201000	-0.009740
0.202000	-0.011384
0.203000	0.017880
0.204000	0.012619
0.205000	-0.008425
0.206000	-0.034730
0.207000	-0.025523
0.208000	-0.000534
0.209000	0.019524
0.210000	0.003412
0.211000	-0.004479
0.212000	-0.002178
0.213000	0.006043
0.214000	0.016236
0.215000	0.012948
0.216000	0.005056
0.217000	0.020510
0.218000	0.009988
0.219000	-0.001191
0.220000	0.003083
0.221000	0.006043
0.222000	-0.009740
0.223000	-0.014673
0.224000	-0.015988
0.225000	-0.010727
0.226000	0.003412
0.227000	0.003741
0.228000	0.000124
0.229000	-0.008096
0.230000	0.001439
0.231000	0.021497
0.232000	0.011303
0.233000	0.000782
0.234000	-0.023550
0.235000	-0.022893
0.236000	0.009002
0.237000	0.028073
0.238000	0.015249
0.239000	-0.007768
0.240000	-0.011384
0.241000	0.005385
0.242000	0.024785
0.243000	0.027086
0.244000	-0.002178
0.245000	-0.024866
0.246000	-0.016974
0.247000	0.003741
0.248000	0.013934
0.249000	0.015249
0.250000	0.003083
0.251000	-0.007439
0.252000	0.004398
0.253000	0.014263
0.254000	0.004070
0.255000	-0.015659
0.256000	-0.021249
0.257000	-0.017303
0.258000	0.010646
0.259000	0.030046
0.260000	0.030046
0.261000	0.013605
0.262000	-0.002835
0.263000	0.002426
0.264000	0.005056
0.265000	0.017880
0.266000	-0.000863
0.267000	-0.009740
0.268000	-0.027496
0.269000	-0.006452
0.270000	0.006043
0.271000	0.011303
0.272000	-0.006781
0.273000	-0.009740
0.274000	-0.006123
0.275000	0.004070
0.276000	0.017222
0.277000	0.005714
0.278000	-0.004808
0.279000	-0.000534
0.280000	0.023141
0.281000	0.030046
0.282000	0.032019
0.283000	0.028402
0.284000	0.035636
0.285000	0.024785
0.286000	0.007687
0.287000	0.008015
0.288000	-0.044923
0.289000	-0.066954
0.290000	-0.063994
0.291000	-0.053144
0.292000	-0.023550
0.293000	-0.012042
0.294000	-0.001191
0.295000	-0.008096
0.296000	0.003412
0.297000	0.014263
0.298000	0.028402
0.299000	0.022483
0.300000	0.005056
0.301000	-0.004808
0.302000	0.011632
0.303000	0.037280
0.304000	0.034320
0.305000	0.014263
0.306000	-0.009740
0.307000	-0.011056
0.308000	0.006043
0.309000	-0.005137
0.310000	-0.010398
0.311000	-0.019276
0.312000	-0.033415
0.313000	-0.033415
0.314000	-0.005137
0.315000	0.009659
0.316000	0.017880
0.317000	0.018866
0.318000	0.020510
0.319000	0.026429
0.320000	0.042212
0.321000	0.023470
0.322000	0.016236
0.323000	-0.006123
0.324000	-0.020920
0.325000	-0.013686
0.326000	0.000453
0.327000	0.010646
0.328000	0.018537
0.329000	0.014920
0.330000	0.015907
0.331000	0.037937
0.332000	0.019853
0.333000	-0.009083
0.334000	-0.027496
0.335000	-0.028483
0.336000	-0.021906
0.337000	-0.034730
0.338000	-0.025523
0.339000	-0.031771
0.340000	-0.034730
0.341000	-0.020920
0.342000	0.003741
0.343000	0.022812
0.344000	0.017222
0.345000	0.005385
0.346000	-0.006452
0.347000	0.001110
0.348000	0.002754
0.349000	0.006371
0.350000	0.007358
0.351000	-0.011713
0.352000	-0.011713
0.353000	-0.004808
0.354000	0.004398
0.355000	-0.000534
0.356000	0.008344
0.357000	-0.013686
0.358000	-0.000863
0.359000	0.021497
0.360000	0.018209
0.361000	0.002097
0.362000	-0.000863
0.363000	-0.000205
0.364000	0.011303
0.365000	0.024456
0.366000	0.022483
0.367000	0.016236
0.368000	-0.005137
0.369000	-0.009740
0.370000	0.015249
0.371000	0.021497
0.372000	-0.005137
0.373000	-0.013029
0.374000	-0.030127
0.375000	-0.011713
0.376000	0.008673
0.377000	0.015249
0.378000	-0.007110
0.379000	-0.031113
0.380000	-0.027825
0.381000	0.003083
0.382000	0.015578
0.383000	-0.000534
0.384000	-0.013686
0.385000	-0.000863
0.386000	-0.001191
0.387000	0.021168
0.388000	0.017880
0.389000	0.008015
0.390000	-0.004151
0.391000	-0.011713
0.392000	0.011632
0.393000	0.011303
0.394000	-0.002507
0.395000	-0.015330
0.396000	-0.011384
0.397000	0.001439
0.398000	0.009659
0.399000	0.012948
0.400000	0.000124
0.401000	-0.018290
0.402000	-0.014015
0.403000	0.009331
0.404000	0.022483
0.405000	0.011303
0.406000	-0.005137
0.407000	-0.001191
0.408000	0.008344
0.409000	0.024456
0.410000	0.019524
0.411000	-0.016317
0.412000	-0.041306
0.413000	-0.024866
0.414000	0.006043
0.415000	0.021497
0.416000	0.016893
0.417000	0.001439
0.418000	-0.023550
0.419000	-0.015001
0.420000	0.009331
0.421000	0.031032
0.422000	0.039252
0.423000	0.023470
0.424000	0.021168
0.425000	0.028073
0.426000	0.028402
0.427000	0.012948
0.428000	-0.009412
0.429000	-0.030127
0.430000	-0.040977
0.431000	-0.015001
0.432000	-0.011713
0.433000	-0.031771
0.434000	-0.034072
0.435000	-0.014344
0.436000	0.009988
0.437000	0.026429
0.438000	0.045171
0.439000	0.025114
0.440000	0.011961
0.441000	0.012619
0.442000	0.005056
0.443000	-0.013029
0.444000	-0.021249
0.445000	-0.032428
0.446000	-0.024208
0.447000	0.000124
0.448000	0.016236
0.449000	0.026758
0.450000	0.001110
0.451000	-0.000205
0.452000	0.005056
0.453000	0.021168
0.454000	0.026429
0.455000	0.003083
0.456000	-0.016974
0.457000	-0.008754
0.458000	0.008344
0.459000	0.017222
0.460000	0.028402
0.461000	0.013934
0.462000	-0.009083
0.463000	-0.015330
0.464000	-0.016317
0.465000	-0.017632
0.466000	-0.028483
0.467000	-0.025852
0.468000	-0.039333
0.469000	-0.019605
0.470000	0.005056
0.471000	0.013605
0.472000	0.010317
0.473000	-0.008754
0.474000	-0.000863
0.475000	0.018209
0.476000	0.050103
0.477000	0.021168
0.478000	-0.004151
0.479000	-0.016645
0.480000	-0.022235
0.481000	0.006043
0.482000	0.013276
0.483000	-0.010727
0.484000	-0.040320
0.485000	-0.021906
0.486000	0.005714
0.487000	0.023141
0.488000	0.017551
0.489000	-0.003822
0.490000	-0.011056
0.491000	-0.004479
0.492000	0.006043
0.493000	0.003741
0.494000	-0.002507
0.495000	-0.016974
0.496000	-0.004151
0.497000	-0.004151
0.498000	0.004070
0.499000	0.007029
0.500000	0.003083
0.501000	0.005714
0.502000	0.011303
0.503000	0.023798
0.504000	0.033334
0.505000	0.022154
0.506000	0.003412
0.507000	-0.000205
0.508000	0.010317
0.509000	0.009659
0.510000	-0.002835
0.511000	-0.010069
0.512000	-0.017961
0.513000	-0.018290
0.514000	0.007358
0.515000	0.015249
0.516000	0.009988
0.517000	0.012948
0.518000	0.022483
0.519000	0.019195
0.520000	0.026100
0.521000	0.020510
0.522000	-0.016317
0.523000	-0.035388
0.524000	-0.037689
0.525000	-0.004479
0.526000	0.026429
0.527000	0.022812
0.528000	-0.000863
0.529000	-0.015988
0.530000	-0.006781
0.531000	0.045829
0.532000	0.036293
0.533000	-0.020262
0.534000	-0.063337
0.535000	-0.057418
0.536000	-0.028154
0.537000	-0.020591
0.538000	-0.035059
0.539000	-0.045910
0.540000	-0.034072
0.541000	-0.007768
0.542000	0.029717
0.543000	0.026758
0.544000	-0.007110
0.545000	-0.034072
0.546000	-0.023222
0.547000	0.013276
0.548000	0.041883
0.549000	0.041225
0.550000	0.010975
0.551000	0.007029
0.552000	0.020510
0.553000	0.038266
0.554000	0.050432
0.555000	0.032347
0.556000	-0.000534
0.557000	-0.004151
0.558000	-0.004479
0.559000	-0.004479
0.560000	-0.009083
0.561000	-0.024208
0.562000	-0.038347
0.563000	-0.032100
0.564000	0.010317
0.565000	0.019524
0.566000	0.012948
0.567000	-0.006781
0.568000	-0.007110
0.569000	-0.000205
0.570000	0.011303
0.571000	0.028073
0.572000	0.027744
0.573000	-0.009412
0.574000	-0.015330
0.575000	-0.006781
0.576000	0.006043
0.577000	-0.016645
0.578000	-0.030127
0.579000	-0.035059
0.580000	-0.018618
0.581000	0.012948
0.582000	0.015249
0.583000	-0.003493
0.584000	-0.010727
0.585000	0.009659
0.586000	0.018537
0.587000	0.034978
0.588000	0.022483
0.589000	0.015907
0.590000	-0.007439
0.591000	-0.004808
0.592000	0.001439
0.593000	0.001110
0.594000	-0.003164
0.595000	0.007029
0.596000	-0.014344
0.597000	0.005056
0.598000	0.024456
0.599000	0.010317
0.600000	-0.002507
0.601000	-0.031771
0.602000	-0.030127
0.603000	-0.011384
0.604000	0.003083
0.605000	-0.018947
0.606000	-0.029140
0.607000	-0.016317
0.608000	0.023470
0.609000	0.057995
0.610000	0.063256
0.611000	0.048788
0.612000	0.013934
0.613000	-0.000205
0.614000	-0.018290
0.615000	-0.026839
0.616000	-0.036374
0.617000	-0.063665
0.618000	-0.074845
0.619000	-0.060377
0.620000	0.000124
0.621000	0.017551
0.622000	0.013276
0.623000	0.006371
0.624000	0.005056
0.625000	0.018209
0.626000	0.046157
0.627000	0.020510
0.628000	-0.004151
0.629000	-0.014344
0.630000	-0.011384
0.631000	0.003741
0.632000	0.004398
0.633000	0.001439
0.634000	-0.020920
0.635000	-0.014673
0.636000	0.000124
0.637000	0.020181
0.638000	0.014592
0.639000	-0.002507
0.640000	-0.007110
0.641000	0.023470
0.642000	0.053720
0.643000	0.040239
0.644000	0.023798
0.645000	-0.011713
0.646000	-0.010398
0.647000	-0.003164
0.648000	0.028073
0.649000	0.004727
0.650000	-0.010727
0.651000	-0.025852
0.652000	-0.021578
0.653000	-0.009412
0.654000	-0.037689
0.655000	-0.060049
0.656000	-0.063337
0.657000	-0.039333
0.658000	-0.010398
0.659000	0.004727
0.660000	0.015907
0.661000	0.008673
0.662000	-0.008754
0.663000	-0.004808
0.664000	0.015249
0.665000	0.022154
0.666000	0.003741
0.667000	-0.002835
0.668000	-0.010069
0.669000	-0.008425
0.670000	-0.000205
0.671000	-0.002178
0.672000	-0.012042
0.673000	-0.024537
0.674000	-0.023879
0.675000	-0.013029
0.676000	0.000453
0.677000	-0.010069
0.678000	-0.020262
0.679000	-0.003493
0.680000	0.011303
0.681000	0.027744
0.682000	0.033991
0.683000	0.020839
0.684000	0.014592
0.685000	0.019524
0.686000	0.028073
0.687000	0.062269
0.688000	0.052405
0.689000	0.015907
0.690000	-0.009083
0.691000	0.014920
0.692000	0.011961
0.693000	-0.005137
0.694000	-0.051171
0.695000	-0.059391
0.696000	-0.047225
0.697000	-0.028811
0.698000	-0.007768
0.699000	-0.009740
0.700000	-0.005137
0.701000	-0.006452
0.702000	-0.012042
0.703000	0.009988
0.704000	0.025114
0.705000	0.005714
0.706000	-0.006123
0.707000	0.001439
0.708000	0.011961
0.709000	0.012948
0.710000	0.014592
0.711000	-0.003822
0.712000	-0.022235
0.713000	-0.012042
0.714000	0.010975
0.715000	0.029717
0.716000	0.026429
0.717000	-0.007768
0.718000	0.005714
0.719000	0.022812
0.720000	0.018209
0.721000	0.004727
0.722000	-0.015659
0.723000	-0.042293
0.724000	-0.037689
0.725000	-0.018618
0.726000	-0.008096
0.727000	-0.007439
0.728000	-0.008096
0.729000	-0.031442
0.730000	-0.026839
0.731000	0.008015
0.732000	0.003741
0.733000	-0.011056
0.734000	-0.017632
0.735000	-0.026510
0.736000	-0.011384
0.737000	0.014592
0.738000	0.015578
0.739000	0.001439
0.740000	0.011961
0.741000	0.040568
0.742000	0.049446
0.743000	0.019195
0.744000	0.002426
0.745000	-0.005466
0.746000	-0.011713
0.747000	-0.017632
0.748000	-0.007110
0.749000	0.005056
0.750000	0.012948
0.751000	0.007358
0.752000	-0.002507
0.753000	-0.000205
0.754000	0.001110
0.755000	-0.005466
0.756000	-0.029798
0.757000	-0.017632
0.758000	-0.004151
0.759000	0.003741
0.760000	-0.004151
0.761000	-0.014344
0.762000	-0.020262
0.763000	-0.014015
0.764000	0.014263
0.765000	0.015578
0.766000	0.006371
0.767000	-0.014673
0.768000	-0.019605
0.769000	-0.013029
0.770000	0.012619
0.771000	0.000782
0.772000	-0.002507
0.773000	-0.011056
0.774000	0.003741
0.775000	0.026100
0.776000	0.030375
0.777000	0.017222
0.778000	-0.001520
0.779000	-0.013686
0.780000	0.001768
0.781000	0.018209
0.782000	0.030375
0.783000	0.018209
0.784000	0.013276
0.785000	0.025442
0.786000	0.036293
0.787000	0.029059
0.788000	-0.007768
0.789000	-0.036374
0.790000	-0.047225
0.791000	-0.032428
0.792000	0.001110
0.793000	0.003083
0.794000	0.009002
0.795000	-0.006452
0.796000	-0.008425
0.797000	-0.003493
0.798000	-0.020591
0.799000	-0.028811
0.800000	-0.035717
0.801000	-0.017961
0.802000	0.009331
0.803000	0.029717
0.804000	0.028402
0.805000	0.018209
0.806000	-0.000863
0.807000	-0.009740
0.808000	-0.000863
0.809000	-0.002835
0.810000	-0.014673
0.811000	-0.023550
0.812000	-0.014673
0.813000	0.003741
0.814000	0.025442
0.815000	0.030046
0.816000	0.010646
0.817000	-0.025195
0.818000	-0.016645
0.819000	0.008344
0.820000	0.044513
0.821000	0.029059
0.822000	0.003741
0.823000	-0.030127
0.824000	-0.010069
0.825000	0.019524
0.826000	0.004070
0.827000	-0.007110
0.828000	-0.013686
0.829000	-0.007110
0.830000	0.020181
0.831000	0.036951
0.832000	0.020181
0.833000	-0.012371
0.834000	-0.028154
0.835000	-0.003164
0.836000	0.022154
0.837000	0.010317
0.838000	0.003083
0.839000	-0.025195
0.840000	-0.019605
0.841000	0.025442
0.842000	0.039581
0.843000	0.019853
0.844000	0.002097
0.845000	-0.015330
0.846000	-0.021249
0.847000	-0.015001
0.848000	-0.004479
0.849000	0.001110
0.850000	-0.018290
0.851000	-0.034401
0.852000	-0.009740
0.853000	0.013276
0.854000	0.022154
0.855000	0.002754
0.856000	0.001768
0.857000	0.015907
0.858000	0.034649
0.859000	0.045829
0.860000	0.024456
0.861000	0.005385
0.862000	-0.005795
0.863000	0.001768
0.864000	0.007358
0.865000	-0.012371
0.866000	-0.030127
0.867000	-0.022564
0.868000	-0.029140
0.869000	-0.019605
0.870000	-0.015659
0.871000	-0.021578
0.872000	-0.011713
0.873000	-0.009412
0.874000	0.025114
0.875000	0.036951
0.876000	0.034320
0.877000	0.007687
0.878000	-0.007768
0.879000	0.002754
0.880000	0.022154
0.881000	0.036622
0.882000	0.026100
0.883000	-0.016974
0.884000	-0.027167
0.885000	-0.007768
0.886000	0.009659
0.887000	-0.009412
0.888000	-0.035717
0.889000	-0.050184
0.890000	-0.026181
0.891000	0.009988
0.892000	0.017551
0.893000	0.012619
0.894000	-0.010398
0.895000	-0.014015
0.896000	0.002097
0.897000	0.001439
0.898000	-0.000205
0.899000	-0.017632
0.900000	-0.009412
0.901000	0.000124
0.902000	0.007687
0.903000	0.016893
0.904000	0.009988
0.905000	-0.014673
0.906000	-0.024537
0.907000	-0.019605
0.908000	0.010317
0.909000	0.006700
0.910000	-0.007439
0.911000	-0.015988
0.912000	-0.004479
0.913000	0.013934
0.914000	0.013934
0.915000	0.003741
0.916000	-0.019934
0.917000	-0.038018
0.918000	-0.007439
0.919000	0.020510
0.920000	0.033334
0.921000	0.007358
0.922000	0.002426
0.923000	0.009331
0.924000	0.036293
0.925000	0.017880
0.926000	0.006700
0.927000	-0.014673
0.928000	-0.013357
0.929000	0.000782
0.930000	0.008673
0.931000	-0.008754
0.932000	-0.038347
0.933000	-0.032428
0.934000	-0.026839
0.935000	0.011303
0.936000	0.026429
0.937000	0.018537
0.938000	0.007687
0.939000	-0.011384
0.940000	0.001439
0.941000	0.018209
0.942000	0.012948
0.943000	-0.014015
0.944000	-0.001849
0.945000	0.005385
0.946000	0.006700
0.947000	0.017551
0.948000	0.003412
0.949000	-0.008754
0.950000	-0.022564
0.951000	-0.019605
0.952000	-0.007768
0.953000	-0.005466
0.954000	-0.034401
0.955000	-0.047883
0.956000	-0.014673
0.957000	-0.002178
0.958000	0.028730
0.959000	0.029717
0.960000	0.015578
0.961000	0.000453
0.962000	0.001439
0.963000	0.014263
0.964000	0.014592
0.965000	0.004727
0.966000	-0.004808
0.967000	-0.006781
0.968000	-0.004151
0.969000	0.017880
0.970000	0.002426
0.971000	-0.021249
0.972000	-0.025852
0.973000	-0.023879
0.974000	0.005385
0.975000	0.022154
0.976000	-0.001849
0.977000	-0.030127
0.978000	-0.016974
0.979000	0.006043
0.980000	0.018866
0.981000	0.005385
0.982000	0.000782
0.983000	0.006700
0.984000	0.025771
0.985000	0.041554
0.986000	0.031361
0.987000	0.010975
0.988000	-0.000534
0.989000	0.009659
0.990000	0.018209
0.991000	0.010646
0.992000	-0.002507
0.993000	-0.022564
0.994000	-0.037032
0.995000	-0.015001
0.996000	0.013276
0.997000	0.013605
0.998000	0.013605
0.999000	0.024127
1.000000	0.028402
1.001000	0.026758
1.002000	0.028402
1.003000	0.002097
1.004000	-0.018290
1.005000	-0.033415
1.006000	-0.023550
1.007000	-0.017961
1.008000	-0.006781
1.009000	-0.009083
1.010000	-0.050184
1.011000	-0.053801
1.012000	-0.003164
1.013000	0.016893
1.014000	0.007358
1.015000	0.003741
1.016000	0.012948
1.017000	0.020181
1.018000	0.048788
1.019000	0.030375
1.020000	-0.002507
1.021000	-0.028483
1.022000	-0.024208
1.023000	-0.011056
1.024000	-0.001191
1.025000	-0.003493
1.026000	-0.018618
1.027000	-0.016645
1.028000	-0.010398
1.029000	0.008015
1.030000	0.011303
1.031000	0.001439
1.032000	-0.017632
1.033000	-0.002507
1.034000	0.007029
1.035000	0.018537
1.036000	0.015578
1.037000	-0.020262
1.038000	-0.014015
1.039000	-0.008425
1.040000	0.018537
1.041000	0.008673
1.042000	-0.003493
1.043000	-0.019934
1.044000	-0.001849
1.045000	0.017880
1.046000	0.030375
1.047000	0.021825
1.048000	0.013605
1.049000	0.004398
1.050000	0.002754
1.051000	-0.003164
1.052000	-0.005137
1.053000	-0.018618
1.054000	-0.037689
1.055000	-0.011056
1.056000	-0.000534
1.057000	0.011632
1.058000	0.014920
1.059000	0.007687
1.060000	0.000453
1.061000	-0.006781
1.062000	0.001110
1.063000	0.007358
1.064000	-0.010069
1.065000	-0.045581
1.066000	-0.020920
1.067000	-0.016645
1.068000	-0.006781
1.069000	0.013276
1.070000	0.018209
1.071000	0.014920
1.072000	0.013276
1.073000	0.008344
1.074000	0.013605
1.075000	0.011961
1.076000	-0.020920
1.077000	-0.027825
1.078000	-0.022893
1.079000	-0.007110
1.080000	0.003741
1.081000	0.012290
1.082000	0.010975
1.083000	0.014920
1.084000	0.030046
1.085000	0.031690
1.086000	0.017880
1.087000	-0.009083
1.088000	-0.030127
1.089000	-0.014344
1.090000	0.007687
1.091000	0.019853
1.092000	-0.006123
1.093000	-0.005466
1.094000	-0.013029
1.095000	0.010646
1.096000	0.014592
1.097000	0.008344
1.098000	0.001768
1.099000	-0.005466
1.100000	0.014920
1.101000	0.031032
1.102000	0.027744
1.103000	-0.008754
1.104000	-0.016645
1.105000	-0.015330
1.106000	-0.004151
1.107000	-0.000863
1.108000	-0.008096
1.109000	-0.019934
1.110000	-0.016317
1.111000	-0.002835
1.112000	0.008344
1.113000	0.002426
1.114000	-0.017961
1.115000	-0.047883
1.116000	-0.036045
1.117000	-0.009412
1.118000	0.022483
1.119000	0.022154
1.120000	0.008673
1.121000	0.012619
1.122000	0.039581
1.123000	0.047144
1.124000	0.040897
1.125000	0.010975
1.126000	-0.007439
1.127000	-0.006452
1.128000	-0.003493
1.129000	0.009002
1.130000	0.006700
1.131000	0.010975
1.132000	0.009331
1.133000	0.015578
1.134000	0.012290
1.135000	0.011632
1.136000	-0.016974
1.137000	-0.030456
1.138000	-0.025195
1.139000	-0.011384
1.140000	-0.001191
1.141000	-0.003493
1.142000	-0.006452
1.143000	-0.025523
1.144000	-0.027496
1.145000	0.003412
1.146000	-0.001520
1.147000	-0.006781
1.148000	-0.004479
1.149000	-0.007439
1.150000	0.004070
1.151000	0.008344
1.152000	-0.003493
1.153000	-0.014673
1.154000	-0.011056
1.155000	0.002097
1.156000	0.010317
1.157000	0.012619
1.158000	-0.004808
1.159000	-0.010398
1.160000	-0.005466
1.161000	0.010646
1.162000	0.027744
1.163000	0.025114
1.164000	0.012290
1.165000	0.003741
1.166000	-0.001849
1.167000	0.013934
1.168000	0.011961
1.169000	0.002097
1.170000	-0.020591
1.171000	-0.027825
1.172000	-0.010398
1.173000	0.009659
1.174000	-0.005137
1.175000	-0.018290
1.176000	-0.024208
1.177000	-0.009412
1.178000	0.010317
1.179000	0.024127
1.180000	0.022812
1.181000	0.009002
1.182000	0.015249
1.183000	0.032019
1.184000	0.027086
1.185000	0.007358
1.186000	-0.003164
1.187000	-0.022564
1.188000	-0.030784
1.189000	-0.021906
1.190000	-0.034401
1.191000	-0.047883
1.192000	-0.034072
1.193000	0.022483
1.194000	0.038924
1.195000	0.035307
1.196000	0.030375
1.197000	0.013934
1.198000	-0.009083
1.199000	-0.021578
1.200000	-0.005795
1.201000	-0.004479
1.202000	-0.006123
1.203000	-0.015001
1.204000	-0.003164
1.205000	-0.000534
1.206000	0.015578
1.207000	0.023470
1.208000	0.011961
1.209000	-0.006452
1.210000	-0.007439
1.211000	0.009331
1.212000	0.012619
1.213000	-0.006452
1.214000	-0.032100
1.215000	-0.024537
1.216000	-0.020591
1.217000	0.006043
1.218000	0.030703
1.219000	0.006043
1.220000	-0.001849
1.221000	0.005056
1.222000	0.002426
1.223000	0.005385
1.224000	-0.002507
1.225000	-0.027496
1.226000	-0.027496
1.227000	-0.010727
1.228000	0.020510
1.229000	0.047144
1.230000	0.021497
1.231000	-0.001520
1.232000	-0.008096
1.233000	0.003741
1.234000	0.004727
1.235000	-0.003493
1.236000	-0.035717
1.237000	-0.036374
1.238000	-0.016974
1.239000	0.004727
1.240000	0.027415
1.241000	0.013276
1.242000	-0.016317
1.243000	-0.021906
1.244000	-0.002178
1.245000	-0.000863
1.246000	0.006700
1.247000	-0.005466
1.248000	-0.009412
1.249000	0.000124
1.250000	-0.003493
1.251000	0.020181
1.252000	0.007687
1.253000	0.002754
1.254000	-0.017303
1.255000	0.008015
1.256000	0.015249
1.257000	0.009988
1.258000	-0.006781
1.259000	-0.012700
1.260000	-0.007768
1.261000	0.008015
1.262000	0.017880
1.263000	0.004398
1.264000	0.016893
1.265000	0.015249
1.266000	0.006371
1.267000	0.021497
1.268000	0.034978
1.269000	0.010317
1.270000	-0.037689
1.271000	-0.046238
1.272000	-0.037361
1.273000	-0.019276
1.274000	-0.037032
1.275000	-0.048869
1.276000	-0.042293
1.277000	-0.013686
1.278000	0.019853
1.279000	0.033334
1.280000	0.021168
1.281000	-0.005795
1.282000	0.000453
1.283000	0.011632
1.284000	0.031032
1.285000	0.021825
1.286000	-0.005137
1.287000	-0.016317
1.288000	-0.007768
1.289000	0.023798
1.290000	0.011303
1.291000	0.004727
1.292000	-0.012042
1.293000	-0.001849
1.294000	0.010317
1.295000	0.029388
1.296000	0.005056
1.297000	-0.020591
1.298000	-0.022893
1.299000	-0.019605
1.300000	-0.002178
1.301000	0.000453
1.302000	-0.001191
1.303000	-0.015659
1.304000	-0.023550
1.305000	-0.005466
1.306000	0.012948
1.307000	0.016236
1.308000	-0.001191
1.309000	-0.021906
1.310000	-0.006123
1.311000	0.018866
1.312000	0.042869
1.313000	0.028402
1.314000	0.011632
1.315000	0.005385
1.316000	0.021825
1.317000	0.038595
1.318000	0.033334
1.319000	0.012290
1.320000	-0.000205
1.321000	-0.016317
1.322000	0.003741
1.323000	-0.001191
1.324000	-0.015988
1.325000	-0.039662
1.326000	-0.049527
1.327000	-0.023879
1.328000	-0.001849
1.329000	0.033663
1.330000	0.023141
1.331000	-0.019934
1.332000	-0.047883
1.333000	-0.020591
1.334000	-0.010727
1.335000	-0.007110
1.336000	-0.001520
1.337000	-0.007768
1.338000	0.030046
1.339000	0.057008
1.340000	0.056679
1.341000	0.024785
1.342000	-0.015330
1.343000	-0.019276
1.344000	0.003741
1.345000	0.013934
1.346000	-0.000534
1.347000	0.001768
1.348000	-0.023550
1.349000	-0.018947
1.350000	0.001439
1.351000	0.011632
1.352000	-0.003822
1.353000	-0.013029
1.354000	-0.026181
1.355000	-0.001849
1.356000	0.015907
1.357000	0.030046
1.358000	0.014592
1.359000	-0.009412
1.360000	0.002426
1.361000	0.008015
1.362000	0.027744
1.363000	0.002426
1.364000	-0.008096
1.365000	-0.017632
1.366000	-0.005137
1.367000	0.005056
1.368000	-0.006452
1.369000	-0.016974
1.370000	-0.041635
1.371000	-0.026839
1.372000	-0.015330
1.373000	0.020510
1.374000	0.020839
1.375000	0.000124
1.376000	-0.001191
1.377000	0.009659
1.378000	0.021497
1.379000	0.028073
1.380000	0.008673
1.381000	-0.010069
1.382000	-0.017303
1.383000	0.001768
1.384000	0.013605
1.385000	0.002426
1.386000	-0.015988
1.387000	-0.016645
1.388000	-0.008425
1.389000	0.007029
1.390000	0.005714
1.391000	-0.002835
1.392000	-0.012042
1.393000	-0.006452
1.394000	0.007029
1.395000	0.023470
1.396000	0.023798
1.397000	-0.005137
1.398000	-0.010727
1.399000	-0.008096
1.400000	0.018537
1.401000	0.025114
1.402000	0.016893
1.403000	-0.014344
1.404000	-0.015001
1.405000	0.001439
1.406000	0.008673
1.407000	0.001110
1.408000	-0.005466
1.409000	-0.030127
1.410000	-0.027167
1.411000	-0.001520
1.412000	0.021497
1.413000	-0.007768
1.414000	-0.009412
1.415000	0.011632
1.416000	0.048130
1.417000	0.106659
1.418000	0.125730
1.419000	0.087588
1.420000	0.027086
1.421000	-0.014344
1.422000	-0.020920
1.423000	-0.043937
1.424000	-0.080106
1.425000	-0.091614
1.426000	-0.081750
1.427000	-0.027496
1.428000	0.002097
1.429000	0.016893
1.430000	0.004398
1.431000	-0.009740
1.432000	-0.016317
1.433000	0.014592
1.434000	0.021825
1.435000	0.022483
1.436000	0.012290
1.437000	0.011632
1.438000	0.015249
1.439000	0.028402
1.440000	0.035307
1.441000	0.011303
1.442000	-0.011713
1.443000	-0.011056
1.444000	0.003083
1.445000	0.007358
1.446000	-0.000205
1.447000	-0.017303
1.448000	-0.025852
1.449000	-0.032428
1.450000	-0.034730
1.451000	-0.007110
1.452000	-0.011713
1.453000	-0.002507
1.454000	-0.020262
1.455000	-0.009740
1.456000	0.010646
1.457000	0.026100
1.458000	0.018866
1.459000	0.011632
1.460000	-0.002835
1.461000	0.013934
1.462000	0.028073
1.463000	0.010975
1.464000	-0.012042
1.465000	-0.020920
1.466000	-0.006452
1.467000	0.008673
1.468000	0.015578
1.469000	0.021825
1.470000	-0.002507
1.471000	-0.007110
1.472000	-0.007110
1.473000	0.006700
1.474000	0.006371
1.475000	-0.007439
1.476000	-0.013357
1.477000	-0.014015
1.478000	0.009002
1.479000	0.000782
1.480000	-0.005466
1.481000	-0.009740
1.482000	-0.012700
1.483000	0.001439
1.484000	0.050761
1.485000	0.026429
1.486000	0.013934
1.487000	0.026758
1.488000	0.022154
1.489000	0.003412
1.490000	-0.025852
1.491000	-0.041964
1.492000	-0.065638
1.493000	-0.066296
1.494000	-0.053801
1.495000	-0.034730
1.496000	-0.001191
1.497000	0.021168
1.498000	0.018866
1.499000	0.016564
1.500000	0.031361
1.501000	0.040897
1.502000	0.022812
1.503000	-0.003164
1.504000	-0.019276
1.505000	-0.012700
1.506000	0.000782
1.507000	0.004398
1.508000	-0.010727
1.509000	-0.025523
1.510000	-0.032757
1.511000	-0.032757
1.512000	-0.034730
1.513000	-0.033744
1.514000	-0.040320
1.515000	-0.002835
1.516000	-0.011713
1.517000	0.012290
1.518000	0.049117
1.519000	0.066215
1.520000	0.045829
1.521000	0.035307
1.522000	0.013276
1.523000	-0.010069
1.524000	-0.021906
1.525000	-0.075174
1.526000	-0.124824
1.527000	-0.128441
1.528000	-0.088326
1.529000	-0.044923
1.530000	-0.035059
1.531000	-0.005466
1.532000	0.047473
1.533000	0.109618
1.534000	0.116523
1.535000	0.089561
1.536000	-0.012371
1.537000	-0.048540
1.538000	-0.008096
1.539000	0.035964
1.540000	0.068188
1.541000	0.086601
1.542000	0.111591
1.543000	0.078710
1.544000	0.028073
1.545000	-0.031442
1.546000	-0.053472
1.547000	-0.068926
1.548000	-0.088984
1.549000	-0.113316
1.550000	-0.152445
1.551000	-0.147512
1.552000	-0.067611
1.553000	-0.018618
1.554000	-0.037032
1.555000	0.016236
1.556000	0.090218
1.557000	0.127374
1.558000	0.114221
1.559000	0.095808
1.560000	-0.023222
1.561000	-0.182366
1.562000	-0.235305
1.563000	-0.194532
1.564000	-0.202424
1.565000	-0.150472
1.566000	-0.051499
1.567000	0.080354
1.568000	0.267119
1.569000	0.393053
1.570000	0.433826
1.571000	0.373325
1.572000	0.273366
1.573000	0.147103
1.574000	-0.097862
1.575000	-0.242868
1.576000	-0.302054
1.577000	-0.321125
1.578000	-0.311589
1.579000	-0.222481
1.580000	-0.038676
1.581000	0.125072
1.582000	0.220756
1.583000	0.249363
1.584000	0.250678
1.585000	0.055693
1.586000	-0.211959
1.587000	-0.372419
1.588000	-0.514466
1.589000	-0.557540
1.590000	-0.410561
1.591000	-0.393792
1.592000	-0.140936
1.593000	0.119811
1.594000	0.331237
1.595000	0.473941
1.596000	0.402260
1.597000	0.233251
1.598000	-0.106411
1.599000	-0.284298
1.600000	-0.182038
1.601000	-0.241552
1.602000	-0.048211
1.603000	0.132635
1.604000	0.221085
1.605000	0.248376
1.606000	0.266790
1.607000	0.283230
1.608000	0.103042
1.609000	0.120469
1.610000	-0.112330
1.611000	-0.304355
1.612000	-0.196834
1.613000	-0.072543
1.614000	-0.247800
1.615000	-0.341840
1.616000	-0.357952
1.617000	-0.395765
1.618000	-0.242539
1.619000	-0.022893
1.620000	0.125401
1.621000	0.290464
1.622000	0.305261
1.623000	0.163872
1.624000	-0.056432
1.625000	-0.350060
1.626000	-0.350060
1.627000	-0.327043
1.628000	-0.214261
1.629000	0.017222
1.630000	0.419029
1.631000	0.394369
1.632000	0.218783
1.633000	0.045829
1.634000	-0.126797
1.635000	-0.330660
1.636000	-0.343813
1.637000	-0.416151
1.638000	-0.424371
1.639000	-0.512493
1.640000	-0.477639
1.641000	-0.427660
1.642000	-0.454622
1.643000	-0.580228
1.644000	-0.519069
1.645000	-0.160665
1.646000	0.296712
1.647000	0.551540
1.648000	0.676489
1.649000	0.776776
1.650000	0.708712
1.651000	0.431195
1.652000	-0.065638
1.653000	-0.637441
1.654000	-0.987954
1.655000	-1.071801
1.656000	-0.657827
1.657000	-0.226098
1.658000	0.088903
1.659000	0.346362
1.660000	0.479531
1.661000	0.720878
1.662000	0.793874
1.663000	0.439416
1.664000	0.155980
1.665000	-0.066625
1.666000	-0.227413
1.667000	-0.333291
1.668000	-0.394778
1.669000	-0.143567
1.670000	0.193465
1.671000	0.345376
1.672000	0.260542
1.673000	0.310522
1.674000	0.168475
1.675000	-0.187956
1.676000	-0.403656
1.677000	-0.591079
1.678000	-0.650265
1.679000	-0.475008
1.680000	-0.021249
1.681000	0.188862
1.682000	0.104028
1.683000	0.360830
1.684000	0.482490
1.685000	0.542662
1.686000	0.636374
1.687000	0.535757
1.688000	0.277312
1.689000	-0.109370
1.690000	-0.343813
1.691000	-0.480598
1.692000	-0.535510
1.693000	-0.199793
1.694000	0.041554
1.695000	-0.007110
1.696000	-0.112658
1.697000	0.131648
1.698000	0.201356
1.699000	0.079039
1.700000	-0.127784
1.701000	-0.200122
1.702000	-0.360582
1.703000	-0.342497
1.704000	-0.079448
1.705000	0.069503
1.706000	-0.076489
1.707000	-0.198807
1.708000	-0.079448
1.709000	0.041225
1.710000	0.104028
1.711000	0.189190
1.712000	0.247390
1.713000	0.242129
1.714000	-0.254705
1.715000	-0.255362
1.716000	-0.056103
1.717000	-0.038347
1.718000	0.000453
1.719000	-0.256678
1.720000	-0.525317
1.721000	-0.620343
1.722000	-0.483886
1.723000	-0.391161
1.724000	-0.316850
1.725000	-0.220180
1.726000	-0.211302
1.727000	-0.065967
1.728000	0.156309
1.729000	0.449609
1.730000	0.327291
1.731000	0.156967
1.732000	-0.273118
1.733000	-0.636455
1.734000	-0.743318
1.735000	-0.395436
1.736000	-0.097533
1.737000	0.359186
1.738000	0.505178
1.739000	0.530168
1.740000	0.246404
1.741000	0.059968
1.742000	-0.061364
1.743000	-0.306986
1.744000	-0.354335
1.745000	-0.647306
1.746000	-0.449690
1.747000	-0.283311
1.748000	-0.121207
1.749000	0.028402
1.750000	0.103042
1.751000	0.156638
1.752000	0.142499
1.753000	0.102055
1.754000	0.195438
1.755000	0.055693
1.756000	0.033334
1.757000	-0.028483
1.758000	0.020181
1.759000	0.197411
1.760000	0.204316
1.761000	0.194780
1.762000	0.246075
1.763000	0.220099
1.764000	0.227332
1.765000	-0.048211
1.766000	-0.186641
1.767000	-0.445744
1.768000	-0.440154
1.769000	-0.327043
1.770000	-0.186641
1.771000	-0.023879
1.772000	0.033334
1.773000	-0.130743
1.774000	0.212865
1.775000	0.687339
1.776000	0.665309
1.777000	0.544635
1.778000	0.151048
1.779000	-0.206698
1.780000	-0.476652
1.781000	-0.315864
1.782000	-0.012042
1.783000	0.229634
1.784000	0.356226
1.785000	0.706410
1.786000	0.692600
1.787000	0.384504
1.788000	-0.092601
1.789000	-0.425687
1.790000	-0.575625
1.791000	-0.268844
1.792000	-0.022564
1.793000	0.099425
1.794000	0.006043
1.795000	0.013276
1.796000	-0.013686
1.797000	-0.125811
1.798000	-0.109699
1.799000	-0.206041
1.800000	0.001768
1.801000	0.519646
1.802000	0.700492
1.803000	1.086187
1.804000	1.130248
1.805000	0.447965
1.806000	-0.087669
1.807000	-0.576282
1.808000	-0.900161
1.809000	-0.718000
1.810000	-0.610150
1.811000	-0.486517
1.812000	-0.395765
1.813000	-0.020591
1.814000	0.577516
1.815000	0.711671
1.816000	0.764610
1.817000	0.849443
1.818000	0.593957
1.819000	0.083642
1.820000	-0.279037
1.821000	-0.554910
1.822000	-0.515452
1.823000	-0.311918
1.824000	0.092520
1.825000	0.241143
1.826000	0.386806
1.827000	0.415412
1.828000	0.286190
1.829000	0.128360
1.830000	-0.159350
1.831000	-0.345457
1.832000	-0.388202
1.833000	-0.129099
1.834000	-0.066296
1.835000	0.151706
1.836000	0.369050
1.837000	0.287505
1.838000	0.107974
1.839000	0.042212
1.840000	0.064242
1.841000	-0.023550
1.842000	-0.006781
1.843000	0.130333
1.844000	0.207275
1.845000	0.215824
1.846000	0.183272
1.847000	0.115208
1.848000	0.150062
1.849000	0.184916
1.850000	0.147760
1.851000	-0.108384
1.852000	-0.383928
1.853000	-0.379653
1.854000	-0.144224
1.855000	0.170119
1.856000	0.158611
1.857000	0.099754
1.858000	0.072791
1.859000	0.087917
1.860000	0.203987
1.861000	0.086272
1.862000	0.113235
1.863000	0.208261
1.864000	0.322688
1.865000	0.283888
1.866000	0.263173
1.867000	0.027415
1.868000	-0.246813
1.869000	-0.306657
1.870000	-0.277064
1.871000	-0.110685
1.872000	0.105672
1.873000	0.091205
1.874000	-0.037361
1.875000	0.032347
1.876000	0.030703
1.877000	-0.064323
1.878000	-0.224125
1.879000	-0.349402
1.880000	0.050432
1.881000	0.519317
1.882000	0.639333
1.883000	0.357871
1.884000	-0.068598
1.885000	-0.126140
1.886000	-0.003493
1.887000	0.142499
1.888000	0.035636
1.889000	0.061612
1.890000	-0.079448
1.891000	-0.094245
1.892000	-0.006123
1.893000	0.090218
1.894000	-0.032428
1.895000	-0.036703
1.896000	-0.123509
1.897000	-0.137648
1.898000	-0.074516
1.899000	0.171106
1.900000	0.193794
1.901000	0.192150
1.902000	0.054049
1.903000	-0.056432
1.904000	-0.067282
1.905000	0.062927
1.906000	-0.100492
1.907000	-0.048211
1.908000	0.128031
1.909000	0.143814
1.910000	0.095479
1.911000	0.054378
1.912000	0.148089
1.913000	0.236868
1.914000	0.057666
1.915000	-0.246485
1.916000	-0.277393
1.917000	-0.174804
1.918000	0.059310
1.919000	0.240485
1.920000	0.192807
1.921000	0.051418
1.922000	0.162885
1.923000	0.167160
1.924000	0.019524
1.925000	-0.297779
1.926000	-0.418782
1.927000	-0.368145
1.928000	0.032019
1.929000	0.312495
1.930000	0.307562
1.931000	0.318084
1.932000	0.184258
1.933000	-0.268844
1.934000	-0.455937
1.935000	-0.253390
1.936000	0.198726
1.937000	0.532798
1.938000	0.432182
1.939000	0.091533
1.940000	-0.130085
1.941000	-0.204725
1.942000	-0.012042
1.943000	0.203658
1.944000	0.265146
1.945000	0.191492
1.946000	0.027415
1.947000	-0.100492
1.948000	-0.274433
1.949000	-0.509534
1.950000	-0.454293
1.951000	-0.161322
1.952000	0.186560
1.953000	0.312495
1.954000	0.230949
1.955000	0.282573
1.956000	0.244102
1.957000	0.030375
1.958000	-0.363541
1.959000	-0.747922
1.960000	-0.499340
1.961000	-0.100164
1.962000	0.254295
1.963000	0.577516
1.964000	0.507151
1.965000	0.263173
1.966000	0.065557
1.967000	0.022483
1.968000	0.059968
1.969000	0.032676
1.970000	0.166174
1.971000	0.262844
1.972000	0.377270
1.973000	0.238841
1.974000	0.059639
1.975000	-0.238593
1.976000	-0.482571
1.977000	-0.524001
1.978000	-0.491120
1.979000	-0.378995
1.980000	-0.112001
1.981000	-0.051171
1.982000	0.114221
1.983000	0.250678
1.984000	0.230621
1.985000	0.278956
1.986000	0.161241
1.987000	-0.208671
1.988000	-0.225112
1.989000	-0.124167
1.990000	0.140526
1.991000	0.309535
1.992000	0.383847
1.993000	0.156967
1.994000	-0.083394
1.995000	-0.207685
1.996000	-0.155075
1.997000	-0.061693
1.998000	-0.024208
1.999000	-0.104109
2.000000	-0.145868
2.001000	-0.014344
2.002000	0.095479
2.003000	0.112249
2.004000	0.074106
2.005000	-0.002178
2.006000	-0.001191
2.007000	-0.054788
2.008000	-0.130085
2.009000	-0.256349
2.010000	0.021497
2.011000	0.229634
2.012000	0.288491
2.013000	0.106330
2.014000	-0.150143
2.015000	-0.044923
2.016000	0.224044
2.017000	0.401602
2.018000	0.319071
2.019000	0.302959
2.020000	0.221743
2.021000	0.110604
2.022000	0.003083
2.023000	-0.271803
2.024000	-0.338552
2.025000	-0.283640
2.026000	-0.353348
2.027000	-0.298437
2.028000	-0.210644
2.029000	-0.113974
2.030000	0.064242
2.031000	-0.004808
2.032000	-0.233003
2.033000	-0.206698
2.034000	0.074764
2.035000	0.950060
2.036000	0.941510
2.037000	0.296383
2.038000	-0.461856
2.039000	-0.864979
2.040000	-0.450348
2.041000	0.013605
2.042000	0.191492
2.043000	0.000453
2.044000	-0.174475
2.045000	-0.037689
2.046000	0.146774
2.047000	0.177353
2.048000	0.409165
2.049000	0.266132
2.050000	0.097123
2.051000	-0.056103
2.052000	-0.160007
2.053000	-0.149156
2.054000	-0.127784
2.055000	-0.094245
2.056000	-0.044923
2.057000	0.125730
2.058000	0.378914
2.059000	0.390423
2.060000	0.167818
2.061000	-0.148499
2.062000	-0.029140
2.063000	0.267119
2.064000	0.275668
2.065000	-0.140936
2.066000	-0.656841
2.067000	-0.722275
2.068000	-0.259308
2.069000	0.101727
2.070000	0.435799
2.071000	0.563049
2.072000	0.338799
2.073000	-0.053472
2.074000	-0.165597
2.075000	-0.153760
2.076000	-0.180722
2.077000	-0.149485
2.078000	-0.096547
2.079000	-0.068269
2.080000	0.028073
2.081000	-0.136662
2.082000	-0.172173
2.083000	-0.104109
2.084000	0.203658
2.085000	0.395684
2.086000	0.337813
2.087000	0.130004
2.088000	-0.034401
2.089000	-0.076489
2.090000	0.127703
2.091000	0.179984
2.092000	0.107974
2.093000	-0.048211
2.094000	0.009659
2.095000	-0.283640
2.096000	-0.369789
2.097000	-0.278379
2.098000	-0.002835
2.099000	0.075093
2.100000	0.094164
2.101000	0.032347
2.102000	0.034320
2.103000	-0.010398
2.104000	0.156638
2.105000	0.196095
2.106000	0.281586
2.107000	0.214509
2.108000	-0.184668
2.109000	-0.422727
2.110000	-0.370775
2.111000	0.087588
2.112000	0.441717
2.113000	0.327291
2.114000	-0.242210
2.115000	-0.484544
2.116000	-0.270488
2.117000	-0.080435
2.118000	0.197411
2.119000	0.273037
2.120000	0.188533
2.121000	-0.084052
2.122000	-0.217220
2.123000	-0.154089
2.124000	0.049774
2.125000	-0.033086
2.126000	0.176696
2.127000	0.218455
2.128000	0.280271
2.129000	0.232265
2.130000	0.055364
2.131000	-0.028811
2.132000	0.039910
2.133000	-0.070242
2.134000	-0.401026
2.135000	-0.540113
2.136000	-0.504273
2.137000	0.065886
2.138000	0.583764
2.139000	0.676489
2.140000	0.490710
2.141000	-0.100492
2.142000	-0.256020
2.143000	-0.209986
2.144000	0.073778
2.145000	0.159269
2.146000	-0.016645
2.147000	-0.258979
2.148000	-0.373406
2.149000	-0.212288
2.150000	0.010975
2.151000	0.025771
2.152000	-0.040649
2.153000	-0.227742
2.154000	-0.128441
2.155000	0.052076
2.156000	0.111920
2.157000	0.031361
2.158000	0.047802
2.159000	0.045171
2.160000	0.162885
2.161000	0.332552
2.162000	0.239498
2.163000	-0.084052
2.164000	-0.419110
2.165000	-0.504930
2.166000	-0.123180
2.167000	-0.079777
2.168000	-0.139621
2.169000	-0.088984
2.170000	0.146774
2.171000	0.525893
2.172000	0.555486
2.173000	0.398314
2.174000	0.354911
2.175000	0.193465
2.176000	-0.040320
2.177000	-0.163953
2.178000	-0.200780
2.179000	-0.103780
2.180000	-0.018618
2.181000	0.049446
2.182000	0.069174
2.183000	-0.041306
2.184000	-0.326057
2.185000	-0.315535
2.186000	-0.404643
2.187000	-0.409904
2.188000	-0.122194
2.189000	0.145787
2.190000	0.385819
2.191000	0.505836
2.192000	0.315783
2.193000	0.162228
2.194000	0.029388
2.195000	-0.090957
2.196000	-0.276078
2.197000	-0.458239
2.198000	-0.625933
2.199000	-0.343484
2.200000	-0.152116
2.201000	0.163214
2.202000	0.521618
2.203000	0.480846
2.204000	0.348993
2.205000	0.204644
2.206000	0.204644
2.207000	0.098110
2.208000	0.001110
2.209000	-0.113316
2.210000	-0.038676
2.211000	0.140526
2.212000	0.053720
2.213000	-0.107726
2.214000	-0.413192
2.215000	-0.760417
2.216000	-0.500984
2.217000	-0.098848
2.218000	0.166831
2.219000	0.294081
2.220000	0.201356
2.221000	0.150391
2.222000	0.124743
2.223000	0.032019
2.224000	-0.000205
2.225000	0.054378
2.226000	0.177024
2.227000	0.177682
2.228000	0.115208
2.229000	-0.020591
2.230000	-0.341840
2.231000	-0.379653
2.232000	-0.248457
2.233000	-0.073201
2.234000	0.229963
2.235000	0.312166
2.236000	0.162885
2.237000	0.234566
2.238000	0.346362
2.239000	0.230292
2.240000	0.058324
2.241000	-0.227742
2.242000	-0.320796
2.243000	-0.171516
2.244000	-0.104767
2.245000	-0.315206
2.246000	-0.429304
2.247000	-0.252403
2.248000	0.206617
2.249000	0.498931
2.250000	0.698190
2.251000	0.417057
2.252000	-0.094574
2.253000	-0.474351
2.254000	-0.598641
2.255000	-0.389517
2.256000	-0.145211
2.257000	-0.164282
2.258000	-0.196505
2.259000	-0.181051
2.260000	0.245088
2.261000	0.527537
2.262000	0.672543
2.263000	0.721207
2.264000	0.488409
2.265000	0.186889
2.266000	-0.322111
2.267000	-0.463829
2.268000	-0.330989
2.269000	-0.127455
2.270000	-0.013029
2.271000	-0.042293
2.272000	-0.294820
2.273000	-0.297450
2.274000	-0.130085
2.275000	-0.007439
2.276000	0.085615
2.277000	0.087259
2.278000	0.101398
2.279000	0.171106
2.280000	0.191163
2.281000	0.191492
2.282000	0.224044
2.283000	0.089889
2.284000	-0.098191
2.285000	-0.210644
2.286000	-0.169214
2.287000	-0.014673
2.288000	0.159926
2.289000	0.216811
2.290000	0.189848
2.291000	0.246732
2.292000	0.243115
2.293000	-0.077476
2.294000	-0.410233
2.295000	-0.357294
2.296000	-0.106411
2.297000	-0.078133
2.298000	0.010646
2.299000	-0.112001
2.300000	-0.228400
2.301000	-0.168227
2.302000	-0.117591
2.303000	-0.129099
2.304000	0.111920
2.305000	0.287834
2.306000	0.262186
2.307000	0.285532
2.308000	0.270736
2.309000	0.025114
2.310000	-0.068926
2.311000	-0.260952
2.312000	-0.065967
2.313000	0.152035
2.314000	0.480846
2.315000	0.253309
2.316000	-0.118906
2.317000	-0.641387
2.318000	-0.631523
2.319000	-0.549649
2.320000	-0.130085
2.321000	0.105672
2.322000	0.389108
2.323000	0.418372
2.324000	0.366748
2.325000	0.179655
2.326000	0.009988
2.327000	-0.244840
2.328000	-0.246485
2.329000	-0.015330
2.330000	0.192478
2.331000	0.186889
2.332000	0.068845
2.333000	-0.124824
2.334000	-0.022893
2.335000	-0.007439
2.336000	0.079696
2.337000	0.103699
2.338000	0.235882
2.339000	0.116194
2.340000	-0.161651
2.341000	-0.421741
2.342000	-0.524659
2.343000	-0.157705
2.344000	0.126387
2.345000	0.080683
2.346000	0.159269
2.347000	0.011961
2.348000	-0.095889
2.349000	-0.222810
2.350000	-0.176119
2.351000	-0.110357
2.352000	-0.058733
2.353000	0.214180
2.354000	0.256925
2.355000	0.257583
2.356000	0.250678
2.357000	0.122771
2.358000	0.108303
2.359000	0.203658
2.360000	0.122771
2.361000	-0.092930
2.362000	-0.166255
2.363000	-0.131072
2.364000	-0.103452
2.365000	-0.049527
2.366000	-0.136004
2.367000	-0.257006
2.368000	-0.121536
2.369000	-0.074187
2.370000	0.179326
2.371000	0.302959
2.372000	0.156309
2.373000	0.126716
2.374000	-0.032757
2.375000	-0.143238
2.376000	-0.120550
2.377000	-0.246485
2.378000	-0.389846
2.379000	-0.257335
2.380000	-0.013357
2.381000	0.238512
2.382000	0.298356
2.383000	0.211221
2.384000	0.093835
2.385000	0.037608
2.386000	0.025442
2.387000	0.106659
2.388000	0.085615
2.389000	0.039910
2.390000	0.034978
2.391000	-0.133373
2.392000	-0.174146
2.393000	-0.197820
2.394000	-0.326057
2.395000	-0.277722
2.396000	-0.088984
2.397000	0.082984
2.398000	0.186889
2.399000	0.193136
2.400000	0.060954
2.401000	0.046486
2.402000	0.318084
2.403000	0.298027
2.404000	-0.059391
2.405000	-0.321453
2.406000	-0.595025
2.407000	-0.295806
2.408000	0.163872
2.409000	-0.025852
2.410000	-0.183024
2.411000	-0.084709
2.412000	0.233909
2.413000	0.399630
2.414000	0.259227
2.415000	0.125730
2.416000	-0.040320
2.417000	-0.011384
2.418000	0.087588
2.419000	-0.026839
2.420000	-0.079777
2.421000	-0.176777
2.422000	-0.125482
2.423000	0.064900
2.424000	0.012619
2.425000	0.053720
2.426000	0.089561
2.427000	0.149075
2.428000	0.156967
2.429000	0.111920
2.430000	-0.000863
2.431000	-0.232674
2.432000	-0.093916
2.433000	0.096466
2.434000	0.109947
2.435000	0.208261
2.436000	-0.033744
2.437000	-0.124824
2.438000	-0.013357
2.439000	-0.030127
2.440000	-0.019276
2.441000	-0.066296
2.442000	0.051747
2.443000	0.137567
2.444000	0.009659
2.445000	-0.258979
2.446000	-0.577269
2.447000	-0.427002
2.448000	-0.074845
2.449000	0.382860
2.450000	0.748169
2.451000	0.587052
2.452000	0.242458
2.453000	-0.057418
2.454000	-0.327372
2.455000	-0.257006
2.456000	-0.092930
2.457000	-0.025195
2.458000	-0.068926
2.459000	-0.239908
2.460000	-0.348087
2.461000	-0.244840
2.462000	0.162228
2.463000	0.563706
2.464000	0.674516
2.465000	0.519646
2.466000	0.092191
2.467000	-0.467775
2.468000	-0.448375
2.469000	-0.260952
2.470000	-0.101150
2.471000	0.029059
2.472000	0.073120
2.473000	0.015249
2.474000	-0.087669
2.475000	-0.080106
2.476000	-0.026510
2.477000	0.029388
2.478000	0.059968
2.479000	0.100083
2.480000	0.051747
2.481000	0.076079
2.482000	0.076737
2.483000	0.027744
2.484000	0.030703
2.485000	0.029717
2.486000	0.068517
2.487000	0.032347
2.488000	-0.047554
2.489000	-0.023879
2.490000	-0.076818
2.491000	-0.047225
2.492000	-0.009083
2.493000	0.082327
2.494000	0.055035
2.495000	0.037608
2.496000	-0.025195
2.497000	0.010646
2.498000	0.102384
2.499000	0.194123
2.500000	0.132635
2.501000	-0.048869
2.502000	-0.059720
2.503000	-0.072872
2.504000	-0.161322
2.505000	-0.189929
2.506000	-0.291203
2.507000	0.111920
2.508000	0.385491
2.509000	0.106330
2.510000	-0.148828
2.511000	-0.430619
2.512000	-0.267857
2.513000	-0.257993
2.514000	-0.012700
2.515000	0.202014
2.516000	0.187546
2.517000	0.055693
2.518000	0.125072
2.519000	0.185902
2.520000	0.254624
2.521000	0.318084
2.522000	0.263502
2.523000	0.055364
2.524000	-0.172502
2.525000	-0.326057
2.526000	-0.421412
2.527000	-0.149485
2.528000	0.024785
2.529000	0.097781
2.530000	0.013605
2.531000	-0.109699
2.532000	-0.126468
2.533000	0.011632
2.534000	0.130991
2.535000	0.125072
2.536000	0.115208
2.537000	0.162557
2.538000	0.092520
2.539000	0.009002
2.540000	-0.014344
2.541000	-0.000534
2.542000	-0.075831
2.543000	-0.126797
2.544000	-0.129757
2.545000	-0.028483
2.546000	0.024785
2.547000	0.117181
2.548000	0.125401
2.549000	0.048459
2.550000	-0.029469
2.551000	-0.041635
2.552000	-0.008096
2.553000	-0.010727
2.554000	0.017880
2.555000	0.031361
2.556000	0.011632
2.557000	0.024785
2.558000	0.044842
2.559000	0.048459
2.560000	0.070818
2.561000	0.033663
2.562000	0.022812
2.563000	-0.034072
2.564000	0.056351
2.565000	0.125730
2.566000	-0.109370
2.567000	-0.303040
2.568000	-0.472049
2.569000	-0.258651
2.570000	0.092191
2.571000	0.172092
2.572000	0.241143
2.573000	0.309206
2.574000	0.408507
2.575000	0.223716
2.576000	-0.115946
2.577000	-0.042950
2.578000	-0.185654
2.579000	-0.087011
2.580000	-0.057089
2.581000	-0.151458
2.582000	-0.205054
2.583000	-0.107069
2.584000	0.137567
2.585000	0.318084
2.586000	0.279285
2.587000	0.040897
2.588000	-0.230044
2.589000	-0.462185
2.590000	-0.382612
2.591000	-0.191902
2.592000	0.153350
2.593000	0.265146
2.594000	0.246732
2.595000	0.059310
2.596000	-0.054788
2.597000	-0.066954
2.598000	-0.056103
2.599000	0.059310
2.600000	0.138882
2.601000	0.041225
2.602000	0.127374
2.603000	0.158611
2.604000	0.005056
2.605000	0.008344
2.606000	0.040568
2.607000	0.014263
2.608000	0.045500
2.609000	-0.022235
2.610000	-0.096875
2.611000	-0.143238
2.612000	-0.161980
2.613000	-0.082079
2.614000	0.058981
2.615000	0.132635
2.616000	0.091205
2.617000	0.022812
2.618000	0.026429
2.619000	0.073120
2.620000	0.073778
2.621000	0.045829
2.622000	-0.015001
2.623000	-0.056432
2.624000	-0.032100
2.625000	0.018209
2.626000	0.025771
2.627000	0.033663
2.628000	0.009659
2.629000	-0.010398
2.630000	0.018866
2.631000	0.017551
2.632000	0.026758
2.633000	-0.035717
2.634000	-0.058404
2.635000	-0.056103
2.636000	-0.020591
2.637000	0.009988
2.638000	0.022812
2.639000	0.008673
2.640000	-0.000205
2.641000	0.009659
2.642000	0.027744
2.643000	0.029059
2.644000	0.019195
2.645000	0.006043
2.646000	0.002426
2.647000	0.010646
2.648000	0.012290
2.649000	0.002426
2.650000	-0.003822
2.651000	-0.010069
2.652000	-0.005795
2.653000	0.008015
2.654000	0.009331
2.655000	0.000782
2.656000	-0.004808
2.657000	0.004398
2.658000	0.010317
2.659000	0.014263
2.660000	0.007358
2.661000	-0.007439
2.662000	-0.002507
2.663000	-0.008425
2.664000	0.007358
2.665000	0.004398
2.666000	-0.004808
2.667000	-0.012700
2.668000	-0.014344
2.669000	-0.015659
2.670000	-0.000863
2.671000	0.001768
2.672000	-0.005137
2.673000	-0.015001
2.674000	-0.008754
2.675000	0.005714
2.676000	0.007687
2.677000	0.009659
2.678000	-0.006781
2.679000	-0.009083
2.680000	-0.010069
2.681000	0.001439
2.682000	0.006371
2.683000	0.002097
2.684000	-0.011384
2.685000	-0.020262
2.686000	-0.013357
2.687000	0.005714
2.688000	0.005714
2.689000	-0.006452
2.690000	-0.020262
2.691000	-0.023550
2.692000	-0.002835
2.693000	0.011632
2.694000	0.022483
2.695000	0.012290
2.696000	-0.009412
2.697000	-0.027496
2.698000	0.003083
2.699000	0.037608
2.700000	0.033663
2.701000	0.017551
2.702000	-0.017961
2.703000	-0.031771
2.704000	0.001768
2.705000	0.005714
2.706000	-0.023879
2.707000	-0.044266
2.708000	-0.029798
2.709000	-0.011713
2.710000	-0.001191
2.711000	0.004398
2.712000	0.022154
2.713000	0.013934
2.714000	-0.002178
2.715000	-0.035388
2.716000	-0.012371
2.717000	0.001768
2.718000	0.000453
2.719000	0.019524
2.720000	0.029717
2.721000	0.055693
2.722000	0.065557
2.723000	0.073778
2.724000	0.067201
2.725000	0.053720
2.726000	0.030703
2.727000	0.040897
2.728000	0.049446
2.729000	0.037608
2.730000	0.054707
2.731000	0.043856
2.732000	0.049446
2.733000	0.050432
2.734000	0.055035
2.735000	0.029717
2.736000	0.019524
2.737000	0.035964
2.738000	0.025771
2.739000	0.004727
2.740000	0.040568
2.741000	0.006700
2.742000	0.061612
2.743000	0.104357
2.744000	0.120798
2.745000	0.104357
2.746000	0.072134
2.747000	0.073778
2.748000	0.072134
2.749000	0.074764
2.750000	0.026429
2.751000	0.019195
2.752000	0.074106
2.753000	0.152364
2.754000	0.231607
2.755000	0.213522
2.756000	0.147103
2.757000	0.066215
2.758000	-0.020591
2.759000	-0.049527
2.760000	0.002426
2.761000	0.033663
2.762000	0.031690
2.763000	0.020839
2.764000	0.011303
2.765000	0.013276
2.766000	0.037608
2.767000	0.011632
2.768000	-0.022893
2.769000	-0.045910
2.770000	-0.055445
2.771000	-0.041964
2.772000	-0.045910
2.773000	-0.042622
2.774000	-0.051499
2.775000	-0.060706
2.776000	-0.044923
2.777000	-0.012042
2.778000	-0.008096
2.779000	0.017551
2.780000	0.019195
2.781000	0.033991
2.782000	0.040239
2.783000	0.055364
2.784000	0.055693
2.785000	0.057666
2.786000	0.027744
2.787000	0.054049
2.788000	0.080025
2.789000	0.083971
2.790000	0.104357
2.791000	0.128689
2.792000	0.117181
2.793000	0.110933
2.794000	0.095808
2.795000	0.105015
2.796000	0.099754
2.797000	0.124743
2.798000	0.117181
2.799000	0.125730
2.800000	0.124743
2.801000	0.137896
2.802000	0.138225
2.803000	0.154665
2.804000	0.143814
2.805000	0.151706
2.806000	0.150062
2.807000	0.118496
2.808000	0.099425
2.809000	0.087259
2.810000	0.085944
2.811000	0.117510
2.812000	0.140197
2.813000	0.123099
2.814000	0.077395
2.815000	0.049446
2.816000	0.023141
2.817000	0.026100
2.818000	0.039581
2.819000	0.077723
2.820000	0.016564
2.821000	-0.003822
2.822000	-0.016974
2.823000	-0.039662
2.824000	-0.047883
2.825000	-0.027167
2.826000	-0.053472
2.827000	-0.069255
2.828000	-0.055445
2.829000	-0.066954
2.830000	-0.056760
2.831000	-0.008754
2.832000	-0.022893
2.833000	-0.001191
2.834000	0.000124
2.835000	0.025114
2.836000	0.065557
2.837000	0.063913
2.838000	0.068188
2.839000	0.078052
2.840000	0.085615
2.841000	0.083642
2.842000	0.085286
2.843000	0.090547
2.844000	0.046486
2.845000	0.014920
2.846000	-0.036374
2.847000	-0.126140
2.848000	-0.162309
2.849000	-0.162309
2.850000	-0.186641
2.851000	-0.173160
2.852000	-0.151787
2.853000	-0.174475
2.854000	-0.188285
2.855000	-0.199465
2.856000	-0.160665
2.857000	-0.105096
2.858000	-0.075174
2.859000	-0.045581
2.860000	-0.079448
2.861000	-0.122523
2.862000	-0.158363
2.863000	-0.178092
2.864000	-0.233990
2.865000	-0.228729
2.866000	-0.235963
2.867000	-0.231688
2.868000	-0.242539
2.869000	-0.239579
2.870000	-0.260952
2.871000	-0.245169
2.872000	-0.197163
2.873000	-0.148170
2.874000	-0.139950
2.875000	-0.170858
2.876000	-0.152445
2.877000	-0.115289
2.878000	-0.057747
2.879000	-0.085038
2.880000	-0.135018
2.881000	-0.176448
2.882000	-0.185326
2.883000	-0.161651
2.884000	-0.152773
2.885000	-0.113645
2.886000	-0.111672
2.887000	-0.090957
2.888000	-0.055116
2.889000	-0.050513
2.890000	-0.026510
2.891000	-0.008754
2.892000	0.024456
2.893000	0.032019
2.894000	0.023470
2.895000	0.073120
2.896000	0.094164
2.897000	0.072462
2.898000	0.059968
2.899000	0.052405
2.900000	0.049774
2.901000	0.044513
2.902000	0.073449
2.903000	0.053720
2.904000	0.049446
2.905000	0.037280
2.906000	0.050103
2.907000	0.044842
2.908000	0.055364
2.909000	0.034978
2.910000	0.046815
2.911000	0.046815
2.912000	0.054049
2.913000	0.037608
2.914000	0.046486
2.915000	0.037608
2.916000	0.020181
2.917000	0.021825
2.918000	0.006700
2.919000	-0.011056
2.920000	-0.035717
2.921000	-0.031442
2.922000	-0.028154
2.923000	-0.042622
2.924000	-0.057089
2.925000	-0.090628
2.926000	-0.082079
2.927000	-0.089642
2.928000	-0.055774
2.929000	-0.036374
2.930000	-0.021906
2.931000	-0.027167
2.932000	-0.005795
2.933000	0.010646
2.934000	-0.001520
2.935000	0.004398
2.936000	0.019524
2.937000	0.036951
2.938000	0.045500
2.939000	0.041883
2.940000	0.046157
2.941000	0.041225
2.942000	0.025442
2.943000	0.026100
2.944000	0.011303
2.945000	0.014263
2.946000	0.015907
2.947000	0.018866
2.948000	0.027086
2.949000	0.032347
2.950000	0.040239
2.951000	0.041225
2.952000	0.046815
2.953000	0.054707
2.954000	0.054707
2.955000	0.047473
2.956000	0.039910
2.957000	0.034978
2.958000	0.038595
2.959000	0.042212
2.960000	0.033663
2.961000	0.034978
2.962000	0.019524
2.963000	0.020839
2.964000	0.012290
2.965000	0.011632
2.966000	0.005385
2.967000	0.003741
2.968000	0.012619
2.969000	0.008015
2.970000	0.009988
2.971000	0.037608
2.972000	0.053720
2.973000	0.049117
2.974000	0.045829
2.975000	0.034649
2.976000	0.033334
2.977000	0.027744
2.978000	0.031690
2.979000	0.029059
2.980000	0.015907
2.981000	0.018866
2.982000	0.010975
2.983000	-0.022235
2.984000	-0.055774
2.985000	-0.055774
2.986000	-0.043279
2.987000	-0.035717
2.988000	0.014592
2.989000	0.028073
2.990000	0.037937
2.991000	0.026100
2.992000	0.017551
2.993000	0.019853
2.994000	0.014263
2.995000	0.011632
2.996000	-0.012042
2.997000	-0.016645
2.998000	0.001110
2.999000	-0.013029
3.000000	-0.039991
3.001000	-0.038676
3.002000	-0.040320
3.003000	-0.041964
3.004000	-0.043937
3.005000	-0.051828
3.006000	-0.059391
3.007000	-0.023222
3.008000	-0.026839
3.009000	-0.036374
3.010000	-0.035059
3.011000	-0.034401
3.012000	-0.037689
3.013000	-0.045910
3.014000	-0.030784
3.015000	-0.018947
3.016000	-0.002507
3.017000	-0.013686
3.018000	-0.023550
3.019000	-0.020591
3.020000	-0.022235
3.021000	-0.016317
3.022000	-0.035717
3.023000	-0.025195
3.024000	-0.037689
3.025000	-0.041635
3.026000	-0.046238
3.027000	-0.039662
3.028000	-0.026510
3.029000	-0.022235
3.030000	-0.016974
3.031000	-0.017961
3.032000	-0.003493
3.033000	0.007029
3.034000	0.014592
3.035000	0.012619
3.036000	0.007029
3.037000	0.009659
3.038000	0.012619
3.039000	0.013934
3.040000	0.009659
3.041000	0.004398
3.042000	-0.001520
3.043000	0.004070
3.044000	0.000124
3.045000	0.000124
3.046000	0.006043
3.047000	0.021825
3.048000	0.019853
3.049000	0.020839
3.050000	0.020510
3.051000	0.017880
3.052000	0.016893
3.053000	0.019195
3.054000	0.022483
3.055000	0.025114
3.056000	0.023141
3.057000	0.019195
3.058000	0.015249
3.059000	0.019524
3.060000	0.007358
3.061000	0.019853
3.062000	0.020181
3.063000	0.014592
3.064000	0.015578
3.065000	0.009331
3.066000	0.003412
3.067000	0.008015
3.068000	0.009988
3.069000	0.007029
3.070000	0.010975
3.071000	0.009331
3.072000	0.006700
3.073000	0.001439
3.074000	-0.005466
3.075000	-0.010727
3.076000	-0.051828
3.077000	-0.020920
3.078000	-0.014344
3.079000	-0.014673
3.080000	-0.012042
3.081000	-0.004808
3.082000	0.046815
3.083000	0.052734
3.084000	0.045829
3.085000	0.047802
3.086000	0.051747
3.087000	0.041225
3.088000	0.049446
3.089000	-0.008096
3.090000	0.000124
3.091000	0.014263
3.092000	0.045829
3.093000	0.062927
3.094000	0.059310
3.095000	0.068188
3.096000	0.019195
3.097000	0.007358
3.098000	0.005714
3.099000	0.011961
3.100000	0.008673
3.101000	-0.009740
3.102000	-0.039005
3.103000	-0.037361
3.104000	-0.005795
3.105000	0.020839
3.106000	0.028402
3.107000	0.006043
3.108000	-0.013357
3.109000	-0.012042
3.110000	-0.011056
3.111000	-0.017303
3.112000	-0.009083
3.113000	-0.011056
3.114000	-0.007439
3.115000	0.010317
3.116000	0.029388
3.117000	0.043527
3.118000	0.031032
3.119000	0.017880
3.120000	0.020510
3.121000	0.023470
3.122000	0.040239
3.123000	0.042869
3.124000	0.034978
3.125000	0.032347
3.126000	0.042541
3.127000	0.037937
3.128000	0.042541
3.129000	0.033005
3.130000	0.019195
3.131000	0.017222
3.132000	0.017222
3.133000	0.018866
3.134000	0.018209
3.135000	0.014592
3.136000	0.014592
3.137000	0.016893
3.138000	0.025442
3.139000	0.025442
3.140000	0.031690
3.141000	0.022483
3.142000	0.016893
3.143000	0.019524
3.144000	0.020510
3.145000	0.016893
3.146000	0.008015
3.147000	0.003741
3.148000	0.004070
3.149000	0.010975
3.150000	0.008344
3.151000	0.019524
3.152000	0.017551
3.153000	0.008015
3.154000	-0.000534
3.155000	0.006371
3.156000	0.006700
3.157000	-0.002507
3.158000	-0.010727
3.159000	-0.023222
3.160000	-0.017632
3.161000	-0.017961
3.162000	-0.001191
3.163000	-0.003493
3.164000	-0.016317
3.165000	-0.014015
3.166000	-0.013029
3.167000	-0.022893
3.168000	-0.035059
3.169000	-0.015988
3.170000	0.005056
3.171000	0.002097
3.172000	-0.010727
3.173000	-0.009083
3.174000	0.019524
3.175000	0.051090
3.176000	0.025771
3.177000	0.037280
3.178000	0.013276
3.179000	-0.011384
3.180000	-0.026839
3.181000	-0.033086
3.182000	-0.046896
3.183000	-0.057747
3.184000	-0.060377
3.185000	-0.046896
3.186000	-0.053472
3.187000	-0.057089
3.188000	-0.017303
3.189000	0.015907
3.190000	0.021497
3.191000	0.021825
3.192000	0.007687
3.193000	0.000124
3.194000	-0.015659
3.195000	0.020510
3.196000	0.005714
3.197000	-0.016317
3.198000	-0.017303
3.199000	-0.010069
3.200000	0.013276
3.201000	0.017880
3.202000	0.013934
3.203000	0.034978
3.204000	0.064242
3.205000	0.043856
3.206000	0.003412
3.207000	-0.031771
3.208000	-0.061364
3.209000	-0.081421
3.210000	-0.083394
3.211000	-0.060377
3.212000	-0.039005
3.213000	-0.030127
3.214000	-0.013357
3.215000	0.001439
3.216000	0.023141
3.217000	0.027415
3.218000	0.021497
3.219000	0.009988
3.220000	0.002426
3.221000	-0.000534
3.222000	-0.004151
3.223000	0.004727
3.224000	0.005385
3.225000	-0.019276
3.226000	-0.021906
3.227000	-0.020262
3.228000	-0.019276
3.229000	-0.018290
3.230000	-0.025852
3.231000	-0.024537
3.232000	-0.014015
3.233000	-0.013686
3.234000	0.002754
3.235000	-0.003493
3.236000	-0.006781
3.237000	-0.009740
3.238000	-0.015659
3.239000	-0.010398
3.240000	-0.009412
3.241000	-0.004479
3.242000	-0.016317
3.243000	-0.012371
3.244000	-0.003164
3.245000	0.002097
3.246000	0.003741
3.247000	-0.014015
3.248000	-0.017303
3.249000	-0.020591
3.250000	-0.011713
3.251000	-0.017303
3.252000	-0.014673
3.253000	-0.012700
3.254000	0.011303
3.255000	0.027086
3.256000	0.038595
3.257000	0.036951
3.258000	0.030703
3.259000	0.013605
3.260000	0.004727
3.261000	-0.018618
3.262000	-0.032100
3.263000	-0.033415
3.264000	-0.041964
3.265000	-0.043279
3.266000	-0.036045
3.267000	0.000782
3.268000	0.008344
3.269000	-0.005137
3.270000	-0.001191
3.271000	0.018537
3.272000	0.025771
3.273000	0.018537
3.274000	0.022812
3.275000	0.028073
3.276000	0.033334
3.277000	0.046157
3.278000	0.019853
3.279000	-0.008425
3.280000	-0.008754
3.281000	-0.026181
3.282000	-0.009412
3.283000	0.025442
3.284000	0.007029
3.285000	-0.006452
3.286000	0.009659
3.287000	0.008344
3.288000	0.020181
3.289000	0.023470
3.290000	0.011632
3.291000	-0.000205
3.292000	-0.034072
3.293000	-0.006452
3.294000	0.013934
3.295000	0.005385
3.296000	0.009002
3.297000	0.012290
3.298000	0.005056
3.299000	0.022812
3.300000	0.022483
3.301000	0.026758
3.302000	-0.008754
3.303000	-0.017303
3.304000	-0.001849
3.305000	0.012948
3.306000	0.032347
3.307000	0.036951
3.308000	0.044185
3.309000	0.049446
3.310000	0.049446
3.311000	0.049774
3.312000	0.063584
3.313000	0.063584
3.314000	0.056022
3.315000	0.053391
3.316000	0.053720
3.317000	0.047473
3.318000	0.043527
3.319000	0.029717
3.320000	0.024127
3.321000	0.022812
3.322000	0.019195
3.323000	0.019195
3.324000	0.009988
3.325000	0.005714
3.326000	0.004070
3.327000	0.010646
3.328000	0.022154
3.329000	0.023141
3.330000	0.016564
3.331000	0.029059
3.332000	0.030375
3.333000	0.032347
3.334000	0.043198
3.335000	0.035636
3.336000	0.031690
3.337000	0.024456
3.338000	0.023141
3.339000	0.025442
3.340000	0.006700
3.341000	0.005385
3.342000	-0.006781
3.343000	-0.006452
3.344000	-0.006781
3.345000	-0.007110
3.346000	-0.006781
3.347000	-0.013357
3.348000	-0.013029
3.349000	-0.008096
3.350000	0.006700
3.351000	0.011632
3.352000	0.019853
3.353000	0.013605
3.354000	0.013934
3.355000	0.019524
3.356000	0.021825
3.357000	0.018537
3.358000	0.008015
3.359000	0.004398
3.360000	-0.004151
3.361000	0.004070
3.362000	0.008673
3.363000	-0.001849
3.364000	-0.013357
3.365000	-0.007768
3.366000	0.002426
3.367000	0.000782
3.368000	0.005385
3.369000	-0.003822
3.370000	0.000453
3.371000	-0.011713
3.372000	-0.009412
3.373000	-0.001520
3.374000	0.029059
3.375000	0.019524
3.376000	-0.000205
3.377000	0.016564
3.378000	0.000124
3.379000	-0.012042
3.380000	-0.003164
3.381000	0.000453
3.382000	-0.021249
3.383000	-0.015330
3.384000	-0.017632
3.385000	-0.005466
3.386000	0.002097
3.387000	0.003083
3.388000	-0.001849
3.389000	0.017222
3.390000	0.010317
3.391000	0.008015
3.392000	0.004727
3.393000	-0.005137
3.394000	0.002097
3.395000	-0.004808
3.396000	-0.001191
3.397000	-0.009083
3.398000	-0.011384
3.399000	-0.002835
3.400000	-0.004808
3.401000	-0.010398
3.402000	-0.013357
3.403000	-0.021578
3.404000	-0.015659
3.405000	-0.004808
3.406000	0.008015
3.407000	0.000124
3.408000	0.003412
3.409000	0.005714
3.410000	0.005385
3.411000	0.013934
3.412000	0.005056
3.413000	-0.000863
3.414000	0.007029
3.415000	0.017222
3.416000	0.018537
3.417000	0.010646
3.418000	0.006700
3.419000	0.001110
3.420000	-0.001520
3.421000	-0.001849
3.422000	0.000124
3.423000	0.004727
3.424000	-0.002507
3.425000	-0.002178
3.426000	0.001768
3.427000	-0.001191
3.428000	0.009002
3.429000	0.010317
3.430000	0.008344
3.431000	-0.002835
3.432000	0.009002
3.433000	0.014592
3.434000	0.012290
3.435000	0.007687
3.436000	0.006371
3.437000	0.008015
3.438000	-0.006781
3.439000	0.002097
3.440000	-0.000534
3.441000	-0.004151
3.442000	-0.015988
3.443000	-0.006452
3.444000	-0.001520
3.445000	-0.012042
3.446000	-0.014015
3.447000	-0.013029
3.448000	-0.010398
3.449000	-0.007768
3.450000	0.001768
3.451000	0.000453
3.452000	0.000782
3.453000	0.003083
3.454000	0.014592
3.455000	0.014920
3.456000	0.009002
3.457000	0.006043
3.458000	0.008673
3.459000	0.006371
3.460000	0.007358
3.461000	0.011961
3.462000	0.004070
3.463000	-0.003493
3.464000	-0.003164
3.465000	-0.002178
3.466000	-0.000534
3.467000	0.000782
3.468000	-0.004479
3.469000	0.000453
3.470000	-0.007439
3.471000	0.008015
3.472000	0.009659
3.473000	0.005714
3.474000	0.005385
3.475000	0.003083
3.476000	0.000124
3.477000	-0.003164
3.478000	0.001110
3.479000	0.001110
3.480000	-0.002507
3.481000	0.001110
3.482000	-0.002507
3.483000	-0.024208
3.484000	-0.027825
3.485000	-0.017961
3.486000	-0.008096
3.487000	0.003741
3.488000	0.008344
3.489000	0.008673
3.490000	0.008344
3.491000	0.004070
3.492000	0.009988
3.493000	-0.005137
3.494000	0.007029
3.495000	0.005385
3.496000	0.003412
3.497000	0.006371
3.498000	0.000453
3.499000	0.001768
3.500000	0.000124
3.501000	-0.004479
3.502000	-0.010069
3.503000	-0.007110
3.504000	-0.016317
3.505000	-0.002507
3.506000	-0.004808
3.507000	-0.015001
3.508000	-0.010069
3.509000	-0.007110
3.510000	-0.002178
3.511000	-0.004479
3.512000	-0.011056
3.513000	-0.014344
3.514000	-0.015988
3.515000	-0.015330
3.516000	-0.029469
3.517000	-0.030127
3.518000	-0.019934
3.519000	-0.015330
3.520000	-0.016317
3.521000	-0.002178
3.522000	-0.002507
3.523000	-0.010398
3.524000	-0.011713
3.525000	-0.013357
3.526000	-0.006781
3.527000	-0.002835
3.528000	-0.010069
3.529000	-0.006781
3.530000	-0.003493
3.531000	0.009331
3.532000	0.021497
3.533000	0.019524
3.534000	0.031032
3.535000	0.022154
3.536000	0.023798
3.537000	0.024785
3.538000	0.022154
3.539000	0.014592
3.540000	0.009988
3.541000	-0.004151
3.542000	-0.013029
3.543000	-0.010069
3.544000	-0.018947
3.545000	-0.018947
3.546000	-0.015001
3.547000	-0.012042
3.548000	-0.003493
3.549000	0.003412
3.550000	-0.000205
3.551000	0.000782
3.552000	0.008673
3.553000	0.020181
3.554000	0.029059
3.555000	0.023798
3.556000	0.031032
3.557000	0.027086
3.558000	0.021497
3.559000	0.014920
3.560000	0.012619
3.561000	-0.003822
3.562000	-0.011713
3.563000	-0.016317
3.564000	-0.017961
3.565000	-0.008754
3.566000	-0.007439
3.567000	0.001110
3.568000	-0.000534
3.569000	0.010317
3.570000	0.010646
3.571000	0.015249
3.572000	0.008015
3.573000	0.000782
3.574000	0.014263
3.575000	0.004398
3.576000	0.000782
3.577000	0.010975
3.578000	0.014920
3.579000	0.027744
3.580000	0.029717
3.581000	0.012948
3.582000	0.005056
3.583000	-0.003164
3.584000	-0.004808
3.585000	-0.011713
3.586000	-0.036703
3.587000	-0.052486
3.588000	-0.034730
3.589000	-0.005795
3.590000	0.015578
3.591000	0.025114
3.592000	0.065557
3.593000	0.097781
3.594000	0.087917
3.595000	0.044842
3.596000	0.005056
3.597000	-0.020920
3.598000	-0.009740
3.599000	-0.036045
3.600000	-0.041635
3.601000	-0.058076
3.602000	-0.071228
3.603000	-0.035059
3.604000	-0.012042
3.605000	-0.030456
3.606000	-0.049527
3.607000	-0.066954
3.608000	-0.058076
3.609000	-0.028811
3.610000	0.011961
3.611000	0.029388
3.612000	0.029388
3.613000	0.034978
3.614000	0.039910
3.615000	0.035964
3.616000	0.024456
3.617000	0.012619
3.618000	0.008015
3.619000	0.010975
3.620000	0.013934
3.621000	0.012948
3.622000	-0.000534
3.623000	-0.002507
3.624000	-0.010398
3.625000	-0.001849
3.626000	-0.005137
3.627000	-0.000205
3.628000	0.006043
3.629000	0.006371
3.630000	0.013276
3.631000	0.022154
3.632000	0.027744
3.633000	0.020181
3.634000	0.016893
3.635000	0.024127
3.636000	0.018537
3.637000	0.012290
3.638000	-0.001191
3.639000	-0.008096
3.640000	-0.014344
3.641000	-0.019934
3.642000	-0.012700
3.643000	-0.009083
3.644000	-0.013686
3.645000	0.003083
3.646000	0.016564
3.647000	0.014920
3.648000	-0.005795
3.649000	-0.000534
3.650000	-0.000534
3.651000	0.000124
3.652000	0.022812
3.653000	0.027744
3.654000	0.019195
3.655000	0.016564
3.656000	0.011961
3.657000	0.000124
3.658000	-0.019934
3.659000	-0.045910
3.660000	-0.046567
3.661000	-0.025523
3.662000	0.002426
3.663000	0.014920
3.664000	0.013934
3.665000	0.026429
3.666000	0.027415
3.667000	0.006371
3.668000	0.008015
3.669000	0.002097
3.670000	-0.006123
3.671000	-0.001849
3.672000	0.001768
3.673000	0.001768
3.674000	0.010317
3.675000	0.004727
3.676000	0.006700
3.677000	0.007358
3.678000	0.000453
3.679000	0.007029
3.680000	-0.000205
3.681000	-0.007110
3.682000	-0.012371
3.683000	-0.003164
3.684000	-0.011056
3.685000	-0.022564
3.686000	-0.030456
3.687000	-0.019605
3.688000	-0.016974
3.689000	-0.027167
3.690000	-0.016317
3.691000	0.005385
3.692000	0.016893
3.693000	0.025442
3.694000	0.039581
3.695000	0.042212
3.696000	0.030046
3.697000	0.035636
3.698000	0.009002
3.699000	-0.014015
3.700000	-0.025195
3.701000	-0.033086
3.702000	-0.032428
3.703000	-0.041635
3.704000	-0.037032
3.705000	-0.036045
3.706000	-0.030784
3.707000	-0.016974
3.708000	-0.006123
3.709000	0.021825
3.710000	0.015249
3.711000	0.010975
3.712000	0.010317
3.713000	0.033334
3.714000	0.034320
3.715000	0.029388
3.716000	0.009988
3.717000	0.006043
3.718000	0.008015
3.719000	0.009331
3.720000	0.010317
3.721000	0.000782
3.722000	-0.014344
3.723000	-0.013686
3.724000	-0.021906
3.725000	-0.017961
3.726000	-0.018290
3.727000	-0.010069
3.728000	-0.004808
3.729000	0.003083
3.730000	0.012619
3.731000	0.027086
3.732000	0.011632
3.733000	0.003741
3.734000	0.011303
3.735000	0.010975
3.736000	0.017551
3.737000	0.004070
3.738000	-0.005466
3.739000	-0.007768
3.740000	0.006043
3.741000	-0.001191
3.742000	-0.002507
3.743000	-0.015659
3.744000	-0.015330
3.745000	-0.017961
3.746000	-0.014673
3.747000	-0.008096
3.748000	-0.008425
3.749000	0.002426
3.750000	0.010317
3.751000	0.011632
3.752000	0.014263
3.753000	0.015578
3.754000	0.012290
3.755000	0.006043
3.756000	-0.006781
3.757000	-0.025852
3.758000	-0.012700
3.759000	-0.015330
3.760000	-0.009740
3.761000	-0.004151
3.762000	-0.015001
3.763000	-0.018947
3.764000	-0.032428
3.765000	-0.029140
3.766000	-0.036045
3.767000	-0.033086
3.768000	-0.019934
3.769000	-0.020262
3.770000	-0.015659
3.771000	0.004070
3.772000	0.008015
3.773000	0.020181
3.774000	0.014592
3.775000	0.021825
3.776000	0.014592
3.777000	0.013605
3.778000	0.020510
3.779000	-0.019276
3.780000	-0.019605
3.781000	-0.022893
3.782000	-0.019605
3.783000	-0.021249
3.784000	-0.007439
3.785000	0.005056
3.786000	0.008673
3.787000	0.007029
3.788000	-0.002178
3.789000	-0.003493
3.790000	-0.002178
3.791000	0.002426
3.792000	-0.011384
3.793000	-0.037032
3.794000	-0.031442
3.795000	-0.038676
3.796000	-0.016974
3.797000	-0.012700
3.798000	-0.014673
3.799000	-0.000863
3.800000	0.002426
3.801000	0.018537
3.802000	0.022483
3.803000	0.026758
3.804000	0.013276
3.805000	-0.003493
3.806000	-0.017632
3.807000	0.004398
3.808000	-0.001849
3.809000	-0.023879
3.810000	-0.035717
3.811000	-0.033744
3.812000	-0.015001
3.813000	0.015907
3.814000	0.020181
3.815000	0.015249
3.816000	0.007687
3.817000	0.015907
3.818000	0.026429
3.819000	0.023141
3.820000	-0.002835
3.821000	-0.022235
3.822000	-0.017303
3.823000	-0.007768
3.824000	0.008015
3.825000	0.009331
3.826000	-0.004808
3.827000	-0.007768
3.828000	-0.001520
3.829000	0.003412
3.830000	0.003741
3.831000	0.005056
3.832000	0.013276
3.833000	0.021168
3.834000	0.021168
3.835000	0.015249
3.836000	0.017222
3.837000	-0.001849
3.838000	-0.002178
3.839000	0.006371
3.840000	-0.003164
3.841000	-0.006781
3.842000	-0.010727
3.843000	-0.011713
3.844000	-0.011384
3.845000	-0.010727
3.846000	-0.011384
3.847000	-0.012700
3.848000	-0.006781
3.849000	-0.014673
3.850000	-0.011056
3.851000	-0.003164
3.852000	0.007358
3.853000	0.004727
3.854000	0.020510
3.855000	0.012619
3.856000	0.018537
3.857000	0.009659
3.858000	0.010317
3.859000	0.006700
3.860000	-0.003164
3.861000	-0.012042
3.862000	-0.019605
3.863000	-0.022893
3.864000	-0.031113
3.865000	-0.030456
3.866000	-0.027496
3.867000	-0.021906
3.868000	-0.021578
3.869000	-0.016645
3.870000	-0.010398
3.871000	0.004070
3.872000	0.005056
3.873000	0.015249
3.874000	0.011303
3.875000	0.003083
3.876000	0.001439
3.877000	0.001439
3.878000	-0.003164
3.879000	-0.005466
3.880000	-0.016974
3.881000	-0.025195
3.882000	-0.020262
3.883000	-0.012042
3.884000	-0.024866
3.885000	-0.021249
3.886000	-0.026181
3.887000	-0.016645
3.888000	-0.003164
3.889000	-0.003493
3.890000	-0.020591
3.891000	-0.028811
3.892000	-0.028811
3.893000	-0.010398
3.894000	0.003083
3.895000	-0.012371
3.896000	-0.008754
3.897000	-0.001191
3.898000	0.004398
3.899000	0.021168
3.900000	0.003741
3.901000	-0.018290
3.902000	-0.022893
3.903000	-0.050842
3.904000	-0.047554
3.905000	-0.039991
3.906000	-0.026839
3.907000	-0.021249
3.908000	-0.013357
3.909000	0.013276
3.910000	0.014920
3.911000	0.019853
3.912000	0.009331
3.913000	0.005385
3.914000	0.005056
3.915000	0.001110
3.916000	0.003412
3.917000	0.004727
3.918000	0.015907
3.919000	0.014920
3.920000	0.009002
3.921000	0.021497
3.922000	0.009659
3.923000	0.002426
3.924000	-0.023222
3.925000	-0.051499
3.926000	-0.060049
3.927000	-0.037032
3.928000	-0.028811
3.929000	-0.033086
3.930000	-0.030784
3.931000	-0.014015
3.932000	0.005385
3.933000	-0.002835
3.934000	0.004727
3.935000	0.007029
3.936000	0.002426
3.937000	0.001439
3.938000	0.006043
3.939000	0.008673
3.940000	-0.004479
3.941000	-0.020262
3.942000	-0.020262
3.943000	-0.031771
3.944000	-0.027167
3.945000	-0.025523
3.946000	-0.013029
3.947000	-0.011384
3.948000	-0.008096
3.949000	-0.004479
3.950000	0.002754
3.951000	0.001768
3.952000	-0.004151
3.953000	0.001768
3.954000	0.003412
3.955000	0.007029
3.956000	0.014920
3.957000	-0.001191
3.958000	-0.003164
3.959000	0.007029
3.960000	0.007029
3.961000	-0.006452
3.962000	-0.013686
3.963000	-0.023879
3.964000	-0.028483
3.965000	-0.022235
3.966000	-0.023222
3.967000	-0.027167
3.968000	-0.034730
3.969000	-0.027167
3.970000	-0.029798
3.971000	-0.014673
3.972000	-0.003493
3.973000	0.002097
3.974000	0.011961
3.975000	0.008015
3.976000	0.009331
3.977000	0.004727
3.978000	0.003412
3.979000	-0.008425
3.980000	-0.010727
3.981000	-0.011056
3.982000	-0.025523
3.983000	-0.018947
3.984000	-0.018947
3.985000	-0.036045
3.986000	-0.045910
3.987000	-0.049855
3.988000	-0.029469
3.989000	-0.009412
3.990000	-0.001520
3.991000	0.007687
3.992000	0.013605
3.993000	0.025771
3.994000	0.022812
3.995000	0.032347
3.996000	0.015907
3.997000	-0.013686
3.998000	-0.012371
3.999000	-0.004808
4.000000	-0.015001
4.001000	-0.021906
4.002000	-0.024537
4.003000	-0.031113
4.004000	-0.020920
4.005000	0.000782
4.006000	0.007358
4.007000	-0.001520
4.008000	-0.020591
4.009000	-0.012700
4.010000	0.012948
4.011000	0.004070
4.012000	-0.016645
4.013000	-0.030784
4.014000	-0.018290
4.015000	-0.005137
4.016000	0.009659
4.017000	-0.002507
4.018000	-0.015001
4.019000	-0.006781
4.020000	-0.004151
4.021000	0.000124
4.022000	0.002426
4.023000	-0.009412
4.024000	-0.010069
4.025000	-0.003822
4.026000	0.006700
4.027000	0.007358
4.028000	0.007687
4.029000	0.001439
4.030000	-0.004808
4.031000	0.004727
4.032000	0.011303
4.033000	0.026100
4.034000	0.024785
4.035000	0.023141
4.036000	0.027086
4.037000	0.029388
4.038000	0.018866
4.039000	0.008344
4.040000	0.008344
4.041000	0.005714
4.042000	0.005056
4.043000	-0.001191
4.044000	-0.002507
4.045000	0.001110
4.046000	-0.010398
4.047000	-0.016645
4.048000	-0.002178
4.049000	-0.008096
4.050000	-0.013357
4.051000	0.007358
4.052000	0.004398
4.053000	0.008673
4.054000	0.031361
4.055000	0.035636
4.056000	0.027086
4.057000	0.017222
4.058000	0.000124
4.059000	-0.002835
4.060000	-0.006452
4.061000	-0.020920
4.062000	-0.019605
4.063000	-0.024866
4.064000	-0.017632
4.065000	-0.019276
4.066000	-0.014344
4.067000	-0.010727
4.068000	-0.009740
4.069000	-0.001849
4.070000	0.008673
4.071000	0.023798
4.072000	0.026100
4.073000	0.025114
4.074000	0.035307
4.075000	0.028730
4.076000	0.023141
4.077000	0.021497
4.078000	0.012290
4.079000	0.001110
4.080000	0.006043
4.081000	-0.001520
4.082000	-0.012700
4.083000	-0.015659
4.084000	-0.017632
4.085000	-0.011384
4.086000	-0.005137
4.087000	-0.002835
4.088000	0.000124
4.089000	0.001768
4.090000	0.009659
4.091000	0.028402
4.092000	0.028730
4.093000	0.033663
4.094000	0.018866
4.095000	0.013276
4.096000	0.021497
4.097000	0.009331
4.098000	0.017551
4.099000	0.003083
4.100000	-0.000863
4.101000	0.007029
4.102000	0.006700
4.103000	0.003412
4.104000	0.002754
4.105000	-0.001191
4.106000	-0.002507
4.107000	0.013276
4.108000	0.004398
4.109000	0.006700
4.110000	0.008344
4.111000	-0.000534
4.112000	0.009659
4.113000	0.008673
4.114000	0.001768
4.115000	0.013934
4.116000	0.023798
4.117000	0.034978
4.118000	0.029388
4.119000	0.014920
4.120000	-0.000205
4.121000	-0.005795
4.122000	-0.018290
4.123000	-0.031113
4.124000	-0.031113
4.125000	-0.004808
4.126000	-0.006452
4.127000	0.004070
4.128000	-0.016645
4.129000	-0.010069
4.130000	0.006043
4.131000	0.004070
4.132000	0.011632
4.133000	0.013934
4.134000	0.015249
4.135000	0.018537
4.136000	0.015578
4.137000	0.016236
4.138000	0.006371
4.139000	-0.007110
4.140000	-0.005466
4.141000	-0.003493
4.142000	0.005714
4.143000	0.001768
4.144000	0.010317
4.145000	0.012619
4.146000	0.015907
4.147000	0.024127
4.148000	0.030375
4.149000	0.029388
4.150000	0.024456
4.151000	0.030046
4.152000	0.033991
4.153000	0.039581
4.154000	0.037280
4.155000	0.039581
4.156000	0.029059
4.157000	0.029059
4.158000	0.023470
4.159000	0.012948
4.160000	0.000124
4.161000	-0.015330
4.162000	-0.015659
4.163000	-0.015659
4.164000	-0.029469
4.165000	-0.017961
4.166000	-0.020262
4.167000	0.002097
4.168000	0.016564
4.169000	0.026758
4.170000	0.028073
4.171000	0.043856
4.172000	0.028730
4.173000	0.024127
4.174000	0.010975
4.175000	0.007687
4.176000	0.001110
4.177000	-0.014015
4.178000	-0.009083
4.179000	-0.006452
4.180000	0.003741
4.181000	0.011303
4.182000	-0.000205
4.183000	-0.015988
4.184000	-0.009083
4.185000	0.001768
4.186000	0.006371
4.187000	0.011632
4.188000	0.006371
4.189000	0.008015
4.190000	0.008344
4.191000	0.020839
4.192000	0.016564
4.193000	0.018537
4.194000	0.030375
4.195000	0.023798
4.196000	0.030046
4.197000	0.026429
4.198000	0.025771
4.199000	0.024127
4.200000	0.011303
4.201000	-0.005795
4.202000	-0.008096
4.203000	-0.014015
4.204000	-0.015001
4.205000	-0.017961
4.206000	-0.015988
4.207000	-0.017632
4.208000	-0.008096
4.209000	0.005385
4.210000	0.014263
4.211000	0.012948
4.212000	0.019195
4.213000	0.021825
4.214000	0.017880
4.215000	0.021168
4.216000	0.026100
4.217000	0.013934
4.218000	0.012290
4.219000	0.000453
4.220000	0.002426
4.221000	0.004070
4.222000	-0.003493
4.223000	-0.005466
4.224000	-0.004808
4.225000	-0.002835
4.226000	-0.004808
4.227000	-0.010069
4.228000	-0.008754
4.229000	-0.006123
4.230000	0.000453
4.231000	0.010317
4.232000	0.003741
4.233000	0.017551
4.234000	0.017880
4.235000	0.025771
4.236000	0.023141
4.237000	0.022483
4.238000	0.008673
4.239000	0.004727
4.240000	0.005714
4.241000	-0.004808
4.242000	-0.007110
4.243000	-0.015659
4.244000	-0.012042
4.245000	-0.013029
4.246000	-0.008754
4.247000	-0.008425
4.248000	-0.015659
4.249000	-0.009412
4.250000	0.001110
4.251000	0.012619
4.252000	0.022812
4.253000	0.017222
4.254000	0.011303
4.255000	0.019853
4.256000	0.021497
4.257000	0.019524
4.258000	0.014592
4.259000	0.005714
4.260000	0.001439
4.261000	-0.001849
4.262000	0.006043
4.263000	0.002097
4.264000	-0.007768
4.265000	-0.021578
4.266000	-0.021249
4.267000	-0.020591
4.268000	-0.016645
4.269000	-0.020591
4.270000	-0.023550
4.271000	-0.008096
4.272000	0.008673
4.273000	0.024785
4.274000	0.022154
4.275000	0.013605
4.276000	0.015907
4.277000	0.003741
4.278000	0.012290
4.279000	0.005714
4.280000	0.003083
4.281000	0.002097
4.282000	-0.003493
4.283000	-0.003493
4.284000	-0.007110
4.285000	-0.014015
4.286000	-0.011384
4.287000	0.002754
4.288000	0.009988
4.289000	-0.014344
4.290000	-0.015659
4.291000	-0.001520
4.292000	0.008015
4.293000	0.019853
4.294000	0.022812
4.295000	0.032676
4.296000	0.035307
4.297000	0.036622
4.298000	0.024785
4.299000	0.020181
4.300000	0.015907
4.301000	0.011961
4.302000	0.016893
4.303000	0.010975
4.304000	-0.005466
4.305000	-0.007768
4.306000	-0.000205
4.307000	0.005714
4.308000	0.005385
4.309000	0.015578
4.310000	0.017222
4.311000	0.020181
4.312000	0.031032
4.313000	0.037937
4.314000	0.037280
4.315000	0.020839
4.316000	0.009002
4.317000	0.010975
4.318000	0.008344
4.319000	0.010317
4.320000	0.004070
4.321000	-0.001520
4.322000	-0.004479
4.323000	-0.004808
4.324000	-0.001849
4.325000	-0.001520
4.326000	-0.002178
4.327000	-0.008096
4.328000	-0.001520
4.329000	0.003741
4.330000	0.006371
4.331000	0.007687
4.332000	0.007029
4.333000	0.019853
4.334000	0.029717
4.335000	0.034649
4.336000	0.029059
4.337000	0.022812
4.338000	0.018209
4.339000	0.016893
4.340000	0.015907
4.341000	0.011632
4.342000	-0.003822
4.343000	-0.010398
4.344000	-0.013357
4.345000	-0.015001
4.346000	-0.012042
4.347000	-0.004479
4.348000	-0.003493
4.349000	0.001768
4.350000	0.003741
4.351000	0.008673
4.352000	0.013934
4.353000	0.025771
4.354000	0.023141
4.355000	0.020510
4.356000	0.027415
4.357000	0.026758
4.358000	0.021168
4.359000	0.005385
4.360000	0.015578
4.361000	0.012948
4.362000	0.004070
4.363000	0.005385
4.364000	-0.010398
4.365000	-0.009412
4.366000	-0.011713
4.367000	0.012290
4.368000	0.020510
4.369000	0.009988
4.370000	0.010317
4.371000	0.022483
4.372000	0.016564
4.373000	0.017222
4.374000	-0.002835
4.375000	0.000453
4.376000	0.007029
4.377000	0.012290
4.378000	0.004398
4.379000	0.002097
4.380000	-0.002835
4.381000	-0.004479
4.382000	0.005714
4.383000	-0.009412
4.384000	-0.001191
4.385000	0.003083
4.386000	-0.005466
4.387000	-0.005466
4.388000	0.002754
4.389000	0.001768
4.390000	0.004070
4.391000	0.013934
4.392000	0.023470
4.393000	0.025771
4.394000	0.028730
4.395000	0.034978
4.396000	0.032676
4.397000	0.038266
4.398000	0.040239
4.399000	0.032676
4.400000	0.028073
4.401000	0.011961
4.402000	-0.000863
4.403000	-0.011384
4.404000	-0.013357
4.405000	-0.007110
4.406000	-0.015001
4.407000	-0.008754
4.408000	-0.008754
4.409000	-0.004479
4.410000	-0.012700
4.411000	0.006700
4.412000	0.021497
4.413000	0.025442
4.414000	0.028402
4.415000	0.022812
4.416000	0.039910
4.417000	0.040239
4.418000	0.027744
4.419000	0.021168
4.420000	-0.007439
4.421000	-0.017961
4.422000	-0.024208
4.423000	-0.031113
4.424000	-0.015659
4.425000	-0.017632
4.426000	-0.008754
4.427000	0.003412
4.428000	0.010646
4.429000	0.016893
4.430000	0.008673
4.431000	0.014920
4.432000	0.023470
4.433000	0.033663
4.434000	0.030046
4.435000	0.040239
4.436000	0.024785
4.437000	0.017222
4.438000	0.021497
4.439000	0.021497
4.440000	0.022812
4.441000	0.015578
4.442000	-0.006123
4.443000	-0.020920
4.444000	-0.024537
4.445000	-0.017961
4.446000	-0.004151
4.447000	0.003741
4.448000	0.004398
4.449000	0.019195
4.450000	0.014592
4.451000	0.005385
4.452000	0.016236
4.453000	0.023798
4.454000	0.023470
4.455000	0.020839
4.456000	0.021168
4.457000	0.009331
4.458000	0.006700
4.459000	0.001110
4.460000	0.005385
4.461000	-0.012700
4.462000	-0.012042
4.463000	-0.023550
4.464000	-0.020591
4.465000	-0.018290
4.466000	-0.021906
4.467000	-0.014344
4.468000	-0.004808
4.469000	-0.006452
4.470000	0.007358
4.471000	0.004070
4.472000	0.008015
4.473000	0.019853
4.474000	0.028730
4.475000	0.035307
4.476000	0.022154
4.477000	0.017222
4.478000	0.021497
4.479000	0.005714
4.480000	-0.000205
4.481000	-0.013029
4.482000	-0.024208
4.483000	-0.025852
4.484000	-0.030127
4.485000	-0.026510
4.486000	-0.023550
4.487000	-0.015330
4.488000	-0.010398
4.489000	-0.002178
4.490000	-0.013029
4.491000	-0.013029
4.492000	-0.024208
4.493000	-0.019276
4.494000	-0.019605
4.495000	-0.003493
4.496000	0.000453
4.497000	0.003412
4.498000	0.012948
4.499000	0.012290
4.500000	0.005056
4.501000	0.003412
4.502000	0.008673
4.503000	0.002754
4.504000	-0.018618
4.505000	-0.015001
4.506000	-0.021249
4.507000	-0.017961
4.508000	-0.003493
4.509000	0.001439
4.510000	0.008673
4.511000	0.003412
4.512000	-0.008754
4.513000	0.008673
4.514000	0.013934
4.515000	0.010646
4.516000	0.013934
4.517000	0.007029
4.518000	0.004727
4.519000	0.005385
4.520000	0.014920
4.521000	0.025114
4.522000	0.013605
4.523000	-0.002178
4.524000	-0.018947
4.525000	-0.020262
4.526000	-0.021578
4.527000	-0.010727
4.528000	-0.016645
4.529000	-0.014673
4.530000	-0.019934
4.531000	-0.007110
4.532000	-0.004151
4.533000	0.000782
4.534000	0.003741
4.535000	0.006043
4.536000	0.019524
4.537000	0.029059
4.538000	0.035964
4.539000	0.027086
4.540000	0.021168
4.541000	0.012948
4.542000	0.001110
4.543000	-0.005795
4.544000	-0.002835
4.545000	-0.011384
4.546000	0.000124
4.547000	-0.004808
4.548000	-0.000205
4.549000	0.008015
4.550000	0.022154
4.551000	0.023141
4.552000	0.018537
4.553000	0.039910
4.554000	0.050432
4.555000	0.039252
4.556000	0.026429
4.557000	0.014263
4.558000	0.009988
4.559000	0.003741
4.560000	-0.009412
4.561000	-0.017961
4.562000	-0.015659
4.563000	-0.005137
4.564000	0.001110
4.565000	0.005714
4.566000	-0.010398
4.567000	0.002097
4.568000	-0.005795
4.569000	0.003412
4.570000	0.006700
4.571000	0.019853
4.572000	0.031032
4.573000	0.041554
4.574000	0.022812
4.575000	0.016893
4.576000	0.014920
4.577000	0.017880
4.578000	0.023141
4.579000	0.027415
4.580000	0.028073
4.581000	0.038924
4.582000	0.034649
4.583000	0.033991
4.584000	0.019195
4.585000	0.014592
4.586000	0.003412
4.587000	-0.015988
4.588000	-0.023222
4.589000	-0.006781
4.590000	-0.009412
4.591000	-0.004808
4.592000	-0.000863
4.593000	0.012619
4.594000	0.016564
4.595000	0.021825
4.596000	0.030375
4.597000	0.023798
4.598000	0.020181
4.599000	0.019853
4.600000	-0.014344
4.601000	-0.022893
4.602000	-0.011056
4.603000	-0.015659
4.604000	-0.016645
4.605000	-0.006452
4.606000	0.015907
4.607000	0.019853
4.608000	0.008015
4.609000	0.009659
4.610000	0.018209
4.611000	0.035636
4.612000	0.035636
4.613000	0.030703
4.614000	0.023141
4.615000	0.013276
4.616000	0.006371
4.617000	-0.000534
4.618000	-0.013357
4.619000	-0.017303
4.620000	-0.029798
4.621000	-0.015330
4.622000	-0.000534
4.623000	-0.000205
4.624000	-0.008754
4.625000	-0.012700
4.626000	-0.021578
4.627000	-0.023550
4.628000	-0.029140
4.629000	-0.024208
4.630000	-0.015659
4.631000	0.001768
4.632000	0.003412
4.633000	0.012619
4.634000	0.010646
4.635000	0.018866
4.636000	0.017551
4.637000	0.013934
4.638000	0.010646
4.639000	0.009002
4.640000	0.009331
4.641000	0.003083
4.642000	-0.009083
4.643000	-0.021249
4.644000	-0.022235
4.645000	-0.013686
4.646000	-0.007110
4.647000	-0.012042
4.648000	-0.013357
4.649000	-0.001191
4.650000	-0.012042
4.651000	-0.008096
4.652000	-0.007439
4.653000	-0.012700
4.654000	-0.003164
4.655000	0.006700
4.656000	0.016236
4.657000	0.011303
4.658000	0.003083
4.659000	0.004070
4.660000	0.004070
4.661000	0.009659
4.662000	-0.001520
4.663000	-0.022893
4.664000	-0.032757
4.665000	-0.016317
4.666000	-0.011056
4.667000	-0.011384
4.668000	-0.008425
4.669000	-0.002178
4.670000	0.006043
4.671000	0.022154
4.672000	0.016564
4.673000	0.019195
4.674000	0.019853
4.675000	0.009331
4.676000	-0.012042
4.677000	-0.018290
4.678000	-0.012700
4.679000	-0.001191
4.680000	0.000453
4.681000	-0.016317
4.682000	-0.019934
4.683000	-0.022893
4.684000	-0.025195
4.685000	-0.034072
4.686000	-0.050513
4.687000	-0.027496
4.688000	-0.016974
4.689000	0.000782
4.690000	0.002097
4.691000	0.014263
4.692000	0.016564
4.693000	0.025771
4.694000	0.021168
4.695000	0.012619
4.696000	-0.006452
4.697000	-0.011384
4.698000	-0.005795
4.699000	-0.006123
4.700000	-0.002507
4.701000	-0.010398
4.702000	-0.017303
4.703000	-0.035717
4.704000	-0.041964
4.705000	-0.040649
4.706000	-0.033415
4.707000	-0.029798
4.708000	-0.025195
4.709000	-0.014344
4.710000	-0.019276
4.711000	-0.014344
4.712000	-0.026181
4.713000	-0.019934
4.714000	-0.005137
4.715000	-0.009740
4.716000	-0.003164
4.717000	0.003083
4.718000	0.004727
4.719000	-0.003164
4.720000	-0.018618
4.721000	-0.023879
4.722000	-0.032757
4.723000	-0.038347
4.724000	-0.036703
4.725000	-0.031771
4.726000	-0.035717
4.727000	-0.038018
4.728000	-0.032428
4.729000	-0.031442
4.730000	-0.024208
4.731000	-0.015988
4.732000	-0.001520
4.733000	0.016236
4.734000	0.019524
4.735000	0.014920
4.736000	0.006043
4.737000	-0.004479
4.738000	-0.013686
4.739000	-0.010727
4.740000	-0.032100
4.741000	-0.036045
4.742000	-0.041635
4.743000	-0.038347
4.744000	-0.030456
4.745000	-0.021578
4.746000	-0.009740
4.747000	-0.006452
4.748000	-0.010398
4.749000	-0.011056
4.750000	-0.014015
4.751000	0.003412
4.752000	-0.009412
4.753000	-0.007439
4.754000	-0.007768
4.755000	0.006043
4.756000	0.002754
4.757000	-0.016974
4.758000	-0.031442
4.759000	-0.026181
4.760000	-0.038676
4.761000	-0.071557
4.762000	-0.074187
4.763000	-0.071228
4.764000	-0.059391
4.765000	-0.036703
4.766000	-0.026181
4.767000	-0.017632
4.768000	-0.021906
4.769000	-0.021249
4.770000	-0.022235
4.771000	-0.001191
4.772000	0.014592
4.773000	0.028073
4.774000	0.026758
4.775000	0.010975
4.776000	0.008673
4.777000	-0.011713
4.778000	-0.007439
4.779000	-0.013029
4.780000	-0.008096
4.781000	-0.024208
4.782000	-0.031113
4.783000	-0.014344
4.784000	-0.012371
4.785000	-0.021249
4.786000	-0.029798
4.787000	-0.026839
4.788000	-0.020262
4.789000	0.011632
4.790000	0.020181
4.791000	0.020839
4.792000	0.001768
4.793000	0.007029
4.794000	0.013934
4.795000	0.010646
4.796000	0.000782
4.797000	-0.005795
4.798000	-0.009412
4.799000	0.004727
4.800000	0.022812
4.801000	0.014920
4.802000	0.009331
4.803000	-0.007110
4.804000	-0.002507
4.805000	0.010975
4.806000	0.010317
4.807000	0.006371
4.808000	-0.002507
4.809000	0.004070
4.810000	0.013605
4.811000	0.022812
4.812000	0.014263
4.813000	-0.002835
4.814000	0.000453
4.815000	0.004398
4.816000	0.010646
4.817000	0.007029
4.818000	0.023470
4.819000	0.008673
4.820000	-0.010727
4.821000	-0.017303
4.822000	-0.022893
4.823000	-0.035717
4.824000	-0.027167
4.825000	-0.016974
4.826000	-0.016317
4.827000	-0.006781
4.828000	0.010317
4.829000	0.009659
4.830000	0.020510
4.831000	0.020839
4.832000	0.016893
4.833000	0.033663
4.834000	0.034320
4.835000	0.031032
4.836000	0.032019
4.837000	0.016236
4.838000	0.015249
4.839000	0.023141
4.840000	0.031361
4.841000	0.019524
4.842000	0.012290
4.843000	0.011303
4.844000	0.019524
4.845000	0.007029
4.846000	-0.002178
4.847000	-0.009412
4.848000	-0.019934
4.849000	-0.005466
4.850000	0.001110
4.851000	0.021168
4.852000	0.015907
4.853000	0.004727
4.854000	0.031690
4.855000	0.041883
4.856000	0.042212
4.857000	0.031361
4.858000	0.026758
4.859000	0.021168
4.860000	0.015578
4.861000	0.016564
4.862000	0.021497
4.863000	0.013276
4.864000	0.012290
4.865000	0.010646
4.866000	0.000453
4.867000	-0.001520
4.868000	0.010317
4.869000	0.003412
4.870000	-0.000863
4.871000	0.005385
4.872000	0.007687
4.873000	0.026100
4.874000	0.026100
4.875000	0.025442
4.876000	0.020510
4.877000	0.022812
4.878000	0.025771
4.879000	0.009988
4.880000	0.007029
4.881000	-0.002178
4.882000	-0.009083
4.883000	-0.013357
4.884000	-0.011056
4.885000	-0.012371
4.886000	-0.018618
4.887000	-0.020262
4.888000	-0.018618
4.889000	-0.001520
4.890000	0.015907
4.891000	0.013276
4.892000	0.023141
4.893000	0.020839
4.894000	0.021168
4.895000	0.043856
4.896000	0.030046
4.897000	0.004070
4.898000	-0.016317
4.899000	-0.026510
4.900000	-0.016645
4.901000	-0.017961
4.902000	-0.018947
4.903000	-0.029798
4.904000	-0.028483
4.905000	-0.014015
4.906000	-0.004808
4.907000	-0.003164
4.908000	-0.005466
4.909000	0.006043
4.910000	0.007358
4.911000	0.013934
4.912000	0.005385
4.913000	0.013934
4.914000	0.005714
4.915000	0.004070
4.916000	0.018537
4.917000	0.022483
4.918000	0.026100
4.919000	0.018537
4.920000	0.006700
4.921000	-0.001520
4.922000	-0.001849
4.923000	-0.005137
4.924000	-0.009083
4.925000	-0.016317
4.926000	0.000453
4.927000	-0.001191
4.928000	0.004727
4.929000	-0.007110
4.930000	-0.005466
4.931000	0.004398
4.932000	0.006371
4.933000	0.020839
4.934000	0.033005
4.935000	0.022812
4.936000	0.022483
4.937000	0.011632
4.938000	0.014592
4.939000	0.008344
4.940000	0.018537
4.941000	0.002426
4.942000	-0.021578
4.943000	-0.036045
4.944000	-0.011713
4.945000	-0.013029
4.946000	-0.023879
4.947000	-0.012042
4.948000	0.002754
4.949000	0.007687
4.950000	0.020181
4.951000	0.013605
4.952000	0.006371
4.953000	-0.006781
4.954000	-0.004151
4.955000	-0.006452
4.956000	0.001110
4.957000	0.002754
4.958000	-0.001520
4.959000	-0.007768
4.960000	0.005385
4.961000	0.002426
4.962000	-0.007110
4.963000	-0.001849
4.964000	-0.000863
4.965000	-0.002835
4.966000	-0.011056
4.967000	-0.018618
4.968000	-0.031442
4.969000	-0.024208
4.970000	-0.009412
4.971000	0.005714
4.972000	0.018209
4.973000	0.030703
4.974000	0.040568
4.975000	0.040568
4.976000	0.042212
4.977000	0.045500
4.978000	0.031361
4.979000	0.017222
4.980000	0.015907
4.981000	-0.006452
4.982000	-0.004808
4.983000	-0.010398
4.984000	-0.005466
4.985000	-0.009740
4.986000	-0.009740
4.987000	0.003083
4.988000	0.009988
4.989000	0.016236
4.990000	0.021168
4.991000	0.018209
4.992000	0.019195
4.993000	0.033663
4.994000	0.050103
4.995000	0.046157
4.996000	0.045500
4.997000	0.023470
4.998000	0.010646
4.999000	-0.007439
5.000000	-0.004479
5.001000	-0.012042
5.002000	-0.025195
5.003000	-0.019934
5.004000	-0.007768
5.005000	0.008015
5.006000	0.006043
5.007000	-0.011713
5.008000	-0.014673
5.009000	-0.019605
5.010000	-0.010727
5.011000	0.000453
5.012000	-0.001849
5.013000	0.007358
5.014000	0.018209
5.015000	0.021497
5.016000	0.019195
5.017000	0.020510
5.018000	0.022154
5.019000	0.005385
5.020000	-0.015659
5.021000	-0.031771
5.022000	-0.015001
5.023000	-0.006781
5.024000	-0.003822
5.025000	-0.011384
5.026000	-0.012042
5.027000	-0.013029
5.028000	-0.016317
5.029000	-0.024866
5.030000	-0.036374
5.031000	-0.024537
5.032000	-0.006123
5.033000	0.012290
5.034000	0.020181
5.035000	0.014920
5.036000	0.006043
5.037000	-0.006781
5.038000	-0.017961
5.039000	0.001439
5.040000	0.014920
5.041000	-0.004808
5.042000	-0.012700
5.043000	-0.020262
5.044000	-0.025195
5.045000	-0.021578
5.046000	-0.017632
5.047000	-0.016317
5.048000	-0.026181
5.049000	-0.025852
5.050000	-0.013357
5.051000	-0.007439
5.052000	-0.012371
5.053000	-0.000863
5.054000	0.004398
5.055000	0.018209
5.056000	0.016236
5.057000	0.016893
5.058000	-0.002178
5.059000	-0.031771
5.060000	-0.041964
5.061000	-0.033744
5.062000	-0.023879
5.063000	-0.010398
5.064000	-0.014015
5.065000	-0.015659
5.066000	-0.016317
5.067000	-0.003164
5.068000	-0.000863
5.069000	-0.011384
5.070000	-0.020591
5.071000	-0.012042
5.072000	0.005714
5.073000	0.021497
5.074000	0.021825
5.075000	0.013276
5.076000	0.003412
5.077000	-0.000534
5.078000	0.003741
5.079000	0.008015
5.080000	-0.003164
5.081000	-0.017961
5.082000	-0.005466
5.083000	-0.003164
5.084000	0.012948
5.085000	0.001110
5.086000	-0.010398
5.087000	-0.019276
5.088000	0.002097
5.089000	0.019853
5.090000	0.013276
5.091000	0.008673
5.092000	-0.000205
5.093000	0.003412
5.094000	-0.000534
5.095000	-0.005795
5.096000	0.003083
5.097000	-0.003164
5.098000	-0.001520
5.099000	-0.005137
5.100000	-0.002507
5.101000	0.007029
5.102000	0.009659
5.103000	0.001768
5.104000	0.012619
5.105000	0.009988
5.106000	0.009331
5.107000	0.013934
5.108000	0.003741
5.109000	-0.004151
5.110000	-0.013029
5.111000	-0.006123
5.112000	0.004070
5.113000	0.010646
5.114000	0.012619
5.115000	0.016893
5.116000	0.010646
5.117000	0.019524
5.118000	0.029388
5.119000	0.017551
5.120000	0.002097
5.121000	-0.010398
5.122000	-0.015001
5.123000	-0.003822
5.124000	0.000453
5.125000	0.006043
5.126000	0.001439
5.127000	-0.002835
5.128000	0.007687
5.129000	0.009002
5.130000	-0.003493
5.131000	0.007687
5.132000	0.011303
5.133000	0.022812
5.134000	0.034320
5.135000	0.043527
5.136000	0.036951
5.137000	0.023798
5.138000	0.008673
5.139000	0.015578
5.140000	0.013276
5.141000	0.007687
5.142000	-0.012371
5.143000	-0.016645
5.144000	-0.018947
5.145000	-0.017303
5.146000	-0.016317
5.147000	-0.011713
5.148000	-0.023550
5.149000	-0.026510
5.150000	-0.016645
5.151000	-0.007768
5.152000	0.025442
5.153000	0.033663
5.154000	0.025771
5.155000	0.031032
5.156000	0.031361
5.157000	0.030703
5.158000	0.018866
5.159000	-0.002178
5.160000	-0.018947
5.161000	-0.022564
5.162000	-0.002835
5.163000	-0.003164
5.164000	-0.029140
5.165000	-0.024537
5.166000	-0.023550
5.167000	-0.011384
5.168000	-0.005466
5.169000	0.000453
5.170000	0.003412
5.171000	0.003741
5.172000	0.017551
5.173000	0.018537
5.174000	0.012948
5.175000	0.011961
5.176000	0.000782
5.177000	0.002754
5.178000	0.019524
5.179000	0.029717
5.180000	0.011632
5.181000	-0.007110
5.182000	-0.005137
5.183000	-0.009083
5.184000	0.003412
5.185000	0.017880
5.186000	-0.004151
5.187000	-0.001191
5.188000	-0.006781
5.189000	-0.008754
5.190000	-0.000534
5.191000	-0.004808
5.192000	-0.013686
5.193000	-0.023879
5.194000	0.007029
5.195000	0.030703
5.196000	0.024785
5.197000	0.013934
5.198000	-0.002178
5.199000	0.001110
5.200000	0.008344
5.201000	0.022154
5.202000	0.024785
5.203000	0.001768
5.204000	-0.011056
5.205000	-0.006452
5.206000	-0.003822
5.207000	-0.002178
5.208000	-0.013686
5.209000	-0.004479
5.210000	0.012948
5.211000	0.018209
5.212000	0.036622
5.213000	0.027086
5.214000	0.016564
5.215000	0.017222
5.216000	0.004070
5.217000	-0.006781
5.218000	-0.004151
5.219000	-0.005466
5.220000	-0.016974
5.221000	-0.031771
5.222000	-0.029798
5.223000	-0.005466
5.224000	0.004727
5.225000	0.003741
5.226000	-0.012042
5.227000	-0.000863
5.228000	0.005385
5.229000	0.013605
5.230000	0.006700
5.231000	0.004398
5.232000	-0.010727
5.233000	0.002754
5.234000	0.008673
5.235000	0.016236
5.236000	0.012290
5.237000	0.006043
5.238000	0.003083
5.239000	0.014263
5.240000	0.024127
5.241000	0.021168
5.242000	0.014592
5.243000	-0.000863
5.244000	-0.000205
5.245000	0.007029
5.246000	0.012948
5.247000	0.003741
5.248000	0.004727
5.249000	0.008344
5.250000	0.022483
5.251000	0.021825
5.252000	0.022483
5.253000	0.015249
5.254000	-0.002507
5.255000	-0.009740
5.256000	-0.005137
5.257000	0.008344
5.258000	0.007029
5.259000	-0.014673
5.260000	-0.023550
5.261000	-0.015659
5.262000	-0.001191
5.263000	-0.008754
5.264000	-0.008425
5.265000	-0.008425
5.266000	-0.004151
5.267000	-0.000205
5.268000	0.014263
5.269000	0.018866
5.270000	0.001110
5.271000	-0.005795
5.272000	0.000124
5.273000	-0.000863
5.274000	0.019524
5.275000	0.021497
5.276000	0.018866
5.277000	0.009002
5.278000	0.019524
5.279000	0.025114
5.280000	0.011632
5.281000	-0.006781
5.282000	-0.015659
5.283000	-0.019605
5.284000	-0.006781
5.285000	0.008015
5.286000	-0.012700
5.287000	-0.022235
5.288000	-0.028811
5.289000	-0.017303
5.290000	0.003412
5.291000	0.003412
5.292000	0.019853
5.293000	0.023470
5.294000	0.017880
5.295000	0.028402
5.296000	0.027415
5.297000	0.008015
5.298000	0.001110
5.299000	-0.003822
5.300000	0.000124
5.301000	0.008344
5.302000	0.005056
5.303000	-0.008754
5.304000	-0.012700
5.305000	-0.011713
5.306000	0.003083
5.307000	0.013605
5.308000	0.014592
5.309000	0.014920
5.310000	-0.002835
5.311000	-0.007110
5.312000	0.007687
5.313000	0.010646
5.314000	0.008015
5.315000	-0.008754
5.316000	-0.018947
5.317000	-0.016317
5.318000	-0.004151
5.319000	0.012619
5.320000	0.009331
5.321000	-0.013686
5.322000	-0.011384
5.323000	-0.001191
5.324000	0.001439
5.325000	-0.010727
5.326000	-0.012042
5.327000	-0.025523
5.328000	-0.020920
5.329000	-0.006452
5.330000	-0.004151
5.331000	-0.003164
5.332000	0.003741
5.333000	0.010646
5.334000	0.019195
5.335000	0.028402
5.336000	0.027744
5.337000	0.009988
5.338000	0.005714
5.339000	-0.005466
5.340000	-0.002178
5.341000	0.008344
5.342000	0.001110
5.343000	-0.020262
5.344000	-0.023879
5.345000	-0.009740
5.346000	0.005385
5.347000	0.007358
5.348000	-0.007439
5.349000	-0.008754
5.350000	0.002097
5.351000	0.017880
5.352000	0.025114
5.353000	0.013605
5.354000	-0.011384
5.355000	-0.016645
5.356000	-0.012700
5.357000	0.006371
5.358000	0.009331
5.359000	0.010975
5.360000	0.009002
5.361000	-0.014015
5.362000	-0.001849
5.363000	0.002754
5.364000	0.000124
5.365000	-0.010069
5.366000	-0.014015
5.367000	-0.005466
5.368000	0.014592
5.369000	0.012619
5.370000	-0.009740
5.371000	-0.008096
5.372000	0.007358
5.373000	0.003741
5.374000	0.023798
5.375000	0.025442
5.376000	0.028402
5.377000	0.004070
5.378000	-0.014015
5.379000	-0.001849
5.380000	-0.018947
5.381000	-0.033086
5.382000	-0.015988
5.383000	-0.007110
5.384000	0.005385
5.385000	0.019524
5.386000	0.013934
5.387000	-0.005137
5.388000	-0.020262
5.389000	-0.014344
5.390000	-0.003822
5.391000	0.003412
5.392000	0.016236
5.393000	0.020510
5.394000	0.004070
5.395000	0.003741
5.396000	-0.008425
5.397000	-0.004479
5.398000	0.001110
5.399000	0.003741
5.400000	0.011961
5.401000	0.006700
5.402000	0.013605
5.403000	0.009659
5.404000	-0.006452
5.405000	-0.015330
5.406000	-0.015330
5.407000	0.006700
5.408000	0.006043
5.409000	-0.000863
5.410000	-0.007439
5.411000	-0.005795
5.412000	0.002097
5.413000	0.003412
5.414000	0.007687
5.415000	-0.015988
5.416000	-0.012042
5.417000	0.003083
5.418000	0.004727
5.419000	0.021825
5.420000	0.013934
5.421000	-0.011384
5.422000	-0.010398
5.423000	-0.004808
5.424000	0.012619
5.425000	0.009331
5.426000	-0.007110
5.427000	-0.016317
5.428000	-0.018290
5.429000	-0.002178
5.430000	0.018209
5.431000	0.025114
5.432000	0.018537
5.433000	0.016236
5.434000	0.024456
5.435000	0.024456
5.436000	0.024127
5.437000	0.011303
5.438000	-0.017632
5.439000	-0.017632
5.440000	-0.012042
5.441000	0.004727
5.442000	-0.004151
5.443000	-0.020591
5.444000	-0.027496
5.445000	-0.017303
5.446000	-0.010069
5.447000	0.012948
5.448000	0.019195
5.449000	0.013605
5.450000	0.013605
5.451000	0.014263
5.452000	0.021168
5.453000	0.021497
5.454000	0.008015
5.455000	-0.000534
5.456000	0.012290
5.457000	0.009988
5.458000	0.009331
5.459000	0.004398
5.460000	-0.009083
5.461000	-0.034730
5.462000	-0.024866
5.463000	-0.003493
5.464000	0.027086
5.465000	0.017222
5.466000	-0.006452
5.467000	-0.015330
5.468000	-0.000863
5.469000	0.022483
5.470000	0.028730
5.471000	0.018209
5.472000	0.001110
5.473000	-0.014015
5.474000	-0.015001
5.475000	-0.017961
5.476000	-0.037689
5.477000	-0.039991
5.478000	-0.034730
5.479000	-0.012700
5.480000	0.009331
5.481000	0.018209
5.482000	0.009659
5.483000	-0.008754
5.484000	-0.005137
5.485000	0.015578
5.486000	0.016893
5.487000	0.005385
5.488000	-0.009740
5.489000	-0.016645
5.490000	-0.008096
5.491000	-0.002178
5.492000	0.003412
5.493000	0.006371
5.494000	0.000782
5.495000	0.000782
5.496000	-0.003822
5.497000	-0.007439
5.498000	-0.013357
5.499000	-0.024208
5.500000	-0.030784
5.501000	-0.008096
5.502000	0.012290
5.503000	0.017222
5.504000	-0.001191
5.505000	-0.015330
5.506000	-0.026839
5.507000	-0.003164
5.508000	0.016564
5.509000	0.012948
5.510000	0.008015
5.511000	-0.004479
5.512000	-0.000534
5.513000	0.003083
5.514000	-0.011713
5.515000	-0.013029
5.516000	-0.017632
5.517000	-0.016974
5.518000	-0.004808
5.519000	0.006700
5.520000	0.004070
5.521000	0.002097
5.522000	-0.013357
5.523000	-0.012371
5.524000	0.016236
5.525000	0.029717
5.526000	0.026758
5.527000	0.001768
5.528000	-0.015330
5.529000	-0.019605
5.530000	-0.000205
5.531000	-0.006123
5.532000	-0.003164
5.533000	-0.027496
5.534000	-0.021578
5.535000	-0.004151
5.536000	-0.000863
5.537000	0.001439
5.538000	0.000124
5.539000	0.000453
5.540000	0.010975
5.541000	0.031361
5.542000	0.034320
5.543000	0.018209
5.544000	-0.002178
5.545000	-0.005466
5.546000	-0.005466
5.547000	0.000782
5.548000	0.004727
5.549000	-0.000534
5.550000	0.005714
5.551000	0.020839
5.552000	0.027086
5.553000	0.035636
5.554000	0.014920
5.555000	-0.000534
5.556000	-0.009083
5.557000	0.004070
5.558000	0.018537
5.559000	0.006700
5.560000	-0.000534
5.561000	-0.013686
5.562000	-0.006123
5.563000	0.001110
5.564000	0.012619
5.565000	-0.006123
5.566000	-0.027825
5.567000	-0.019605
5.568000	-0.018618
5.569000	-0.003164
5.570000	-0.005137
5.571000	-0.004151
5.572000	-0.016974
5.573000	-0.006452
5.574000	0.008015
5.575000	0.023470
5.576000	0.020839
5.577000	0.010317
5.578000	0.007358
5.579000	0.004727
5.580000	0.012290
5.581000	0.000453
5.582000	0.000124
5.583000	-0.017303
5.584000	-0.012042
5.585000	0.005385
5.586000	0.010646
5.587000	0.014263
5.588000	0.012619
5.589000	0.008015
5.590000	0.001110
5.591000	0.013605
5.592000	0.012619
5.593000	0.007687
5.594000	-0.005795
5.595000	-0.019934
5.596000	-0.000205
5.597000	0.003741
5.598000	0.022154
5.599000	0.009988
5.600000	0.006043
5.601000	0.004070
5.602000	0.015249
5.603000	0.022154
5.604000	0.015578
5.605000	0.003741
5.606000	-0.006123
5.607000	-0.001849
5.608000	0.013605
5.609000	0.004398
5.610000	-0.003164
5.611000	-0.014015
5.612000	-0.018947
5.613000	-0.013357
5.614000	-0.005137
5.615000	-0.002507
5.616000	0.003083
5.617000	-0.002835
5.618000	0.005714
5.619000	0.013605
5.620000	-0.007110
5.621000	-0.011056
5.622000	-0.008425
5.623000	-0.006123
5.624000	-0.004151
5.625000	0.002097
5.626000	0.004398
5.627000	0.008015
5.628000	0.001768
5.629000	-0.002507
5.630000	0.002426
5.631000	0.001768
5.632000	-0.030784
5.633000	-0.008096
5.634000	0.000453
5.635000	0.023141
5.636000	0.018537
5.637000	0.031361
5.638000	0.044185
5.639000	0.028730
5.640000	0.011303
5.641000	-0.002507
5.642000	0.004398
5.643000	0.002426
5.644000	-0.007110
5.645000	-0.010069
5.646000	-0.019276
5.647000	-0.015659
5.648000	-0.005137
5.649000	0.001110
5.650000	-0.010398
5.651000	-0.008096
5.652000	0.009331
5.653000	0.027086
5.654000	0.021497
5.655000	0.014263
5.656000	0.001439
5.657000	0.008015
5.658000	0.017880
5.659000	0.020839
5.660000	0.019195
5.661000	-0.004479
5.662000	-0.005137
5.663000	0.008015
5.664000	0.026429
5.665000	0.017880
5.666000	0.006371
5.667000	0.004727
5.668000	0.006371
5.669000	0.010646
5.670000	0.012290
5.671000	0.021168
5.672000	-0.001849
5.673000	0.001768
5.674000	0.003412
5.675000	0.022812
5.676000	0.027415
5.677000	0.023798
5.678000	0.004398
5.679000	-0.001191
5.680000	0.011961
5.681000	0.020839
5.682000	0.019853
5.683000	0.000453
5.684000	0.004727
5.685000	0.008015
5.686000	0.012290
5.687000	0.022483
5.688000	0.008015
5.689000	0.006043
5.690000	0.008015
5.691000	0.032676
5.692000	0.033991
5.693000	0.030046
5.694000	0.015578
5.695000	0.011961
5.696000	0.017222
5.697000	0.023470
5.698000	0.039581
5.699000	0.040239
5.700000	0.029717
5.701000	0.006700
5.702000	0.015249
5.703000	0.010975
5.704000	0.009331
5.705000	0.011632
5.706000	-0.016645
5.707000	-0.022235
5.708000	-0.007768
5.709000	0.008344
5.710000	-0.011056
5.711000	-0.005466
5.712000	0.010646
5.713000	0.013605
5.714000	0.022154
5.715000	0.028402
5.716000	0.022483
5.717000	0.012290
5.718000	0.000782
5.719000	0.009002
5.720000	0.023470
5.721000	0.012619
5.722000	-0.007439
5.723000	-0.033086
5.724000	-0.021249
5.725000	-0.005466
5.726000	-0.004151
5.727000	0.002754
5.728000	-0.013357
5.729000	-0.015659
5.730000	0.006371
5.731000	0.019195
5.732000	0.002426
5.733000	-0.019934
5.734000	-0.026510
5.735000	0.002097
5.736000	0.026758
5.737000	0.024456
5.738000	0.008344
5.739000	-0.004151
5.740000	-0.002507
5.741000	0.001110
5.742000	0.003083
5.743000	0.007687
5.744000	-0.007439
5.745000	-0.016317
5.746000	-0.006452
5.747000	0.011303
5.748000	0.019853
5.749000	0.015249
5.750000	-0.004808
5.751000	-0.000863
5.752000	0.024785
5.753000	0.025114
5.754000	0.015578
5.755000	0.008673
5.756000	-0.003493
5.757000	-0.024537
5.758000	-0.006452
5.759000	0.006700
5.760000	0.008344
5.761000	-0.004151
5.762000	-0.006781
5.763000	-0.001191
5.764000	0.011303
5.765000	0.012948
5.766000	0.006700
5.767000	-0.009740
5.768000	-0.006781
5.769000	-0.002178
5.770000	0.006700
5.771000	0.007358
5.772000	-0.009412
5.773000	-0.004808
5.774000	0.001768
5.775000	0.012290
5.776000	0.014263
5.777000	0.006043
5.778000	-0.007110
5.779000	-0.018290
5.780000	-0.008425
5.781000	-0.009412
5.782000	-0.009412
5.783000	-0.024537
5.784000	-0.040977
5.785000	-0.036045
5.786000	-0.019276
5.787000	-0.013357
5.788000	-0.006123
5.789000	-0.003822
5.790000	-0.001849
5.791000	0.013934
5.792000	0.016564
5.793000	0.030046
5.794000	0.022812
5.795000	0.003412
5.796000	-0.008754
5.797000	-0.011056
5.798000	0.004070
5.799000	0.002426
5.800000	-0.009083
5.801000	-0.017632
5.802000	-0.016974
5.803000	-0.008096
5.804000	-0.006452
5.805000	-0.008096
5.806000	-0.022235
5.807000	-0.014015
5.808000	0.007358
5.809000	0.028402
5.810000	0.006371
5.811000	-0.011056
5.812000	-0.039991
5.813000	-0.032428
5.814000	-0.011384
5.815000	-0.020920
5.816000	-0.020262
5.817000	-0.029140
5.818000	-0.017303
5.819000	-0.001849
5.820000	-0.015988
5.821000	-0.031442
5.822000	-0.047225
5.823000	-0.064981
5.824000	-0.058404
5.825000	-0.025852
5.826000	-0.005466
5.827000	0.007029
5.828000	0.003083
5.829000	0.003412
5.830000	0.014592
5.831000	0.034649
5.832000	0.020181
5.833000	-0.008425
5.834000	-0.010069
5.835000	-0.006123
5.836000	0.001439
5.837000	-0.002178
5.838000	-0.011384
5.839000	-0.024537
5.840000	-0.018290
5.841000	-0.005137
5.842000	0.018209
5.843000	0.015578
5.844000	0.011303
5.845000	0.000453
5.846000	-0.005466
5.847000	0.008015
5.848000	0.017222
5.849000	0.020839
5.850000	-0.005795
5.851000	0.007358
5.852000	-0.001520
5.853000	0.013276
5.854000	0.006043
5.855000	-0.005137
5.856000	-0.026181
5.857000	-0.034730
5.858000	-0.033086
5.859000	-0.019934
5.860000	-0.010069
5.861000	-0.009083
5.862000	-0.015330
5.863000	-0.001191
5.864000	0.015907
5.865000	0.022154
5.866000	0.029388
5.867000	0.017222
5.868000	0.020839
5.869000	0.005385
5.870000	0.015907
5.871000	0.012619
5.872000	0.008344
5.873000	-0.002507
5.874000	-0.014015
5.875000	-0.013686
5.876000	-0.017632
5.877000	-0.026181
5.878000	-0.035717
5.879000	-0.038018
5.880000	-0.045252
5.881000	-0.029798
5.882000	-0.004808
5.883000	-0.010069
5.884000	-0.024866
5.885000	-0.007768
5.886000	0.014920
5.887000	0.014263
5.888000	-0.006452
5.889000	-0.032757
5.890000	-0.030456
5.891000	-0.018947
5.892000	0.007358
5.893000	0.000453
5.894000	-0.009083
5.895000	-0.004479
5.896000	0.012290
5.897000	0.008673
5.898000	0.007029
5.899000	0.003412
5.900000	0.007358
5.901000	-0.017632
5.902000	0.000124
5.903000	-0.005137
5.904000	-0.006781
5.905000	-0.006452
5.906000	-0.002178
5.907000	-0.007110
5.908000	-0.008754
5.909000	0.002097
5.910000	-0.011056
5.911000	-0.003164
5.912000	-0.010727
5.913000	-0.002507
5.914000	-0.009083
5.915000	0.005385
5.916000	-0.014673
5.917000	-0.003493
5.918000	-0.006452
5.919000	-0.005466
5.920000	0.020510
5.921000	0.021168
5.922000	0.018537
5.923000	0.014263
5.924000	-0.005466
5.925000	-0.020920
5.926000	-0.012371
5.927000	-0.007110
5.928000	-0.006452
5.929000	-0.005466
5.930000	0.007029
5.931000	0.009002
5.932000	0.019195
5.933000	0.021497
5.934000	0.034320
5.935000	0.030046
5.936000	0.034649
5.937000	0.036951
5.938000	0.013934
5.939000	-0.023550
5.940000	-0.039991
5.941000	-0.049855
5.942000	-0.048211
5.943000	-0.033415
5.944000	-0.012042
5.945000	-0.004479
5.946000	0.017222
5.947000	0.035964
5.948000	0.021168
5.949000	0.000453
5.950000	-0.003822
5.951000	0.011632
5.952000	-0.003493
5.953000	-0.000863
5.954000	-0.003493
5.955000	-0.009412
5.956000	-0.009412
5.957000	-0.003493
5.958000	-0.007768
5.959000	0.001439
5.960000	-0.004479
5.961000	-0.015001
5.962000	-0.031771
5.963000	-0.016317
5.964000	-0.008425
5.965000	-0.004151
5.966000	0.008344
5.967000	-0.004479
5.968000	-0.002507
5.969000	0.010975
5.970000	0.003412
5.971000	0.003741
5.972000	0.003083
5.973000	0.029059
5.974000	0.043856
5.975000	0.039910
5.976000	0.031032
5.977000	0.013605
5.978000	-0.004808
5.979000	-0.033415
5.980000	-0.049198
5.981000	-0.080106
5.982000	-0.100164
5.983000	-0.069584
5.984000	-0.055116
5.985000	-0.026839
5.986000	-0.006123
5.987000	0.019195
5.988000	0.036951
5.989000	0.035307
5.990000	0.028073
5.991000	0.051090
5.992000	0.066215
5.993000	0.042212
5.994000	0.016564
5.995000	0.016893
5.996000	0.015249
5.997000	0.001439
5.998000	-0.014015
5.999000	-0.038018
6.000000	-0.032428
6.001000	-0.042622
6.002000	-0.032757
6.003000	0.004070
6.004000	0.041554
6.005000	0.054378
6.006000	0.051418
6.007000	0.048788
6.008000	0.043856
6.009000	0.028402
6.010000	0.001439
6.011000	0.010975
6.012000	0.002097
6.013000	0.016893
6.014000	-0.005466
6.015000	-0.035388
6.016000	-0.050184
6.017000	-0.062679
6.018000	-0.042622
6.019000	-0.053801
6.020000	-0.039662
6.021000	-0.021249
6.022000	-0.024208
6.023000	-0.015330
6.024000	-0.023550
6.025000	-0.010398
6.026000	0.008015
6.027000	0.003083
6.028000	0.003741
6.029000	0.015907
6.030000	0.020839
6.031000	0.046815
6.032000	0.064242
6.033000	0.051418
6.034000	0.020839
6.035000	0.016564
6.036000	0.004727
6.037000	0.000124
6.038000	0.010317
6.039000	0.001768
6.040000	-0.019276
6.041000	-0.005466
6.042000	-0.010398
6.043000	-0.008754
6.044000	-0.029798
6.045000	-0.056432
6.046000	-0.060706
6.047000	-0.040320
6.048000	-0.017632
6.049000	-0.015330
6.050000	-0.028483
6.051000	-0.019276
6.052000	0.009002
6.053000	0.017880
6.054000	-0.014673
6.055000	-0.011056
6.056000	-0.015659
6.057000	-0.001191
6.058000	0.023141
6.059000	0.034320
6.060000	0.040239
6.061000	0.062269
6.062000	0.060954
6.063000	-0.011384
6.064000	-0.041635
6.065000	-0.067611
6.066000	-0.034401
6.067000	-0.084052
6.068000	-0.126140
6.069000	-0.107069
6.070000	-0.012042
6.071000	0.031361
6.072000	-0.027825
6.073000	-0.073530
6.074000	-0.059062
6.075000	-0.013686
6.076000	0.016893
6.077000	0.014263
6.078000	0.003083
6.079000	0.048459
6.080000	0.128031
6.081000	0.088574
6.082000	0.047144
6.083000	0.009659
6.084000	0.012290
6.085000	0.007687
6.086000	-0.017961
6.087000	-0.046238
6.088000	-0.085038
6.089000	-0.062021
6.090000	-0.070899
6.091000	-0.075831
6.092000	-0.074845
6.093000	-0.045581
6.094000	-0.032428
6.095000	-0.039005
6.096000	-0.046238
6.097000	0.022483
6.098000	0.048459
6.099000	0.011303
6.100000	-0.033415
6.101000	-0.039991
6.102000	-0.035388
6.103000	0.003412
6.104000	0.029059
6.105000	0.046157
6.106000	0.056022
6.107000	0.051747
6.108000	0.015249
6.109000	-0.028154
6.110000	-0.044266
6.111000	-0.125811
6.112000	-0.209986
6.113000	-0.256020
6.114000	-0.257335
6.115000	-0.165268
6.116000	-0.107726
6.117000	-0.077476
6.118000	-0.024208
6.119000	-0.001849
6.120000	0.101398
6.121000	0.171106
6.122000	0.194123
6.123000	0.173736
6.124000	0.179984
6.125000	0.113564
6.126000	0.092849
6.127000	0.043856
6.128000	-0.004808
6.129000	-0.041306
6.130000	-0.022893
6.131000	0.034978
6.132000	-0.045581
6.133000	-0.040320
6.134000	-0.062021
6.135000	-0.090957
6.136000	-0.029798
6.137000	0.109947
6.138000	0.114221
