LabVIEW Measurement	
Writer_Version	2
Reader_Version	2
Separator	Tab
Decimal_Separator	.
Multi_Headings	Yes
X_Columns	One
Time_Pref	Absolute
Operator	absf624
Date	2017/04/21
Time	15:14:25.230673930035033569
***End_of_Header***	
	
Channels	1	
Samples	1000	
Date	2017/04/21	
Time	15:14:25.230673930035033569	
Y_Unit_Label	Volts	
X_Dimension	Time	
X0	0.0000000000000000E+0	
Delta_X	0.001000	
***End_of_Header***		
X_Value	Voltage	Comment
0.000000	0.067201
0.001000	0.046157
0.002000	0.033991
0.003000	-0.027496
0.004000	-0.025852
0.005000	0.010646
0.006000	0.029059
0.007000	0.089889
0.008000	0.071805
0.009000	0.071476
0.010000	0.038924
0.011000	-0.033744
0.012000	-0.049527
0.013000	-0.075503
0.014000	-0.044594
0.015000	0.004727
0.016000	0.047144
0.017000	0.013934
0.018000	-0.027167
0.019000	-0.036045
0.020000	-0.007768
0.021000	0.049774
0.022000	0.060296
0.023000	0.072462
0.024000	0.057995
0.025000	0.046486
0.026000	0.005056
0.027000	-0.002835
0.028000	-0.007110
0.029000	0.027086
0.030000	0.025114
0.031000	0.009331
0.032000	0.012619
0.033000	0.009659
0.034000	-0.007768
0.035000	-0.012371
0.036000	-0.015659
0.037000	-0.029798
0.038000	-0.030127
0.039000	-0.019934
0.040000	0.016893
0.041000	-0.012042
0.042000	0.000124
0.043000	0.028073
0.044000	0.074106
0.045000	0.112249
0.046000	0.106001
0.047000	0.022483
0.048000	-0.030456
0.049000	-0.065638
0.050000	-0.022235
0.051000	-0.003493
0.052000	0.079039
0.053000	0.131648
0.054000	0.113893
0.055000	0.092849
0.056000	0.044185
0.057000	-0.034401
0.058000	-0.051171
0.059000	-0.011384
0.060000	0.034978
0.061000	0.033334
0.062000	0.018209
0.063000	-0.053144
0.064000	-0.075831
0.065000	-0.081092
0.066000	-0.028811
0.067000	-0.061693
0.068000	-0.065967
0.069000	-0.013029
0.070000	-0.030456
0.071000	0.038266
0.072000	0.141513
0.073000	0.100740
0.074000	0.042541
0.075000	-0.017961
0.076000	-0.009083
0.077000	-0.042293
0.078000	-0.030456
0.079000	0.004727
0.080000	0.018537
0.081000	0.031032
0.082000	0.005714
0.083000	-0.011384
0.084000	-0.008425
0.085000	0.005056
0.086000	0.020510
0.087000	0.038266
0.088000	0.022154
0.089000	0.009002
0.090000	-0.018947
0.091000	-0.023550
0.092000	-0.008425
0.093000	0.024127
0.094000	0.044513
0.095000	0.019853
0.096000	-0.014015
0.097000	-0.062679
0.098000	-0.081092
0.099000	-0.085696
0.100000	-0.013029
0.101000	0.061940
0.102000	0.123428
0.103000	0.117510
0.104000	0.061940
0.105000	0.041883
0.106000	0.036622
0.107000	0.005385
0.108000	0.018209
0.109000	0.037608
0.110000	0.044842
0.111000	0.027415
0.112000	0.022812
0.113000	0.024785
0.114000	0.019853
0.115000	0.008673
0.116000	0.006371
0.117000	-0.020591
0.118000	-0.063008
0.119000	-0.054459
0.120000	-0.015659
0.121000	-0.026839
0.122000	-0.092601
0.123000	-0.077804
0.124000	-0.060049
0.125000	-0.014673
0.126000	0.077395
0.127000	0.067201
0.128000	0.046815
0.129000	0.017222
0.130000	-0.021906
0.131000	-0.013357
0.132000	0.017551
0.133000	0.070818
0.134000	0.083313
0.135000	0.034649
0.136000	-0.008754
0.137000	-0.074187
0.138000	-0.076489
0.139000	-0.059720
0.140000	-0.012371
0.141000	0.044842
0.142000	0.043198
0.143000	0.017222
0.144000	-0.025852
0.145000	-0.076160
0.146000	-0.063337
0.147000	-0.046567
0.148000	-0.045581
0.149000	-0.023879
0.150000	0.003412
0.151000	0.034320
0.152000	-0.011713
0.153000	-0.074187
0.154000	-0.094903
0.155000	-0.098519
0.156000	-0.041964
0.157000	-0.027825
0.158000	-0.007110
0.159000	0.108632
0.160000	0.049117
0.161000	0.031361
0.162000	0.069832
0.163000	0.063256
0.164000	-0.016645
0.165000	-0.067282
0.166000	-0.056760
0.167000	-0.064981
0.168000	-0.043608
0.169000	0.007029
0.170000	0.003412
0.171000	-0.007439
0.172000	0.001768
0.173000	0.023798
0.174000	0.072791
0.175000	0.077395
0.176000	0.004398
0.177000	-0.026839
0.178000	-0.058076
0.179000	-0.023550
0.180000	-0.004808
0.181000	-0.016645
0.182000	-0.037032
0.183000	-0.045252
0.184000	-0.050842
0.185000	-0.047225
0.186000	-0.046896
0.187000	-0.047225
0.188000	-0.026839
0.189000	-0.003493
0.190000	0.057008
0.191000	0.057995
0.192000	0.035964
0.193000	-0.005137
0.194000	0.013276
0.195000	0.019853
0.196000	-0.005795
0.197000	-0.033744
0.198000	-0.021906
0.199000	0.001439
0.200000	0.041225
0.201000	0.007029
0.202000	-0.041964
0.203000	-0.093587
0.204000	-0.157048
0.205000	-0.030127
0.206000	0.038266
0.207000	0.042212
0.208000	0.023798
0.209000	-0.042622
0.210000	-0.113974
0.211000	-0.070571
0.212000	-0.050184
0.213000	0.003741
0.214000	0.024456
0.215000	0.044842
0.216000	0.061940
0.217000	0.029717
0.218000	-0.059720
0.219000	-0.125811
0.220000	-0.106740
0.221000	-0.030127
0.222000	0.044513
0.223000	0.095150
0.224000	0.063584
0.225000	0.018866
0.226000	-0.008096
0.227000	-0.004151
0.228000	-0.010398
0.229000	-0.035717
0.230000	-0.087011
0.231000	-0.094903
0.232000	-0.040977
0.233000	-0.042950
0.234000	0.045829
0.235000	0.082327
0.236000	0.073778
0.237000	0.114221
0.238000	0.066873
0.239000	0.020181
0.240000	0.013934
0.241000	-0.004479
0.242000	-0.027167
0.243000	-0.046896
0.244000	-0.068269
0.245000	-0.065310
0.246000	-0.041964
0.247000	-0.015988
0.248000	0.093835
0.249000	0.104028
0.250000	0.034978
0.251000	-0.007768
0.252000	-0.045910
0.253000	-0.049527
0.254000	-0.008425
0.255000	0.038266
0.256000	0.049117
0.257000	0.029059
0.258000	0.028730
0.259000	0.051747
0.260000	0.031690
0.261000	-0.014344
0.262000	-0.035388
0.263000	-0.042950
0.264000	-0.073859
0.265000	-0.097533
0.266000	-0.055445
0.267000	-0.003164
0.268000	0.010975
0.269000	0.007358
0.270000	-0.003822
0.271000	0.002426
0.272000	0.018866
0.273000	0.014592
0.274000	-0.008096
0.275000	-0.067940
0.276000	-0.077804
0.277000	-0.084381
0.278000	-0.029469
0.279000	0.111920
0.280000	0.195109
0.281000	0.168146
0.282000	0.084957
0.283000	0.007358
0.284000	-0.018290
0.285000	0.009002
0.286000	0.038595
0.287000	0.023798
0.288000	-0.062679
0.289000	-0.065638
0.290000	-0.093916
0.291000	-0.084381
0.292000	-0.050842
0.293000	-0.013686
0.294000	-0.038018
0.295000	-0.027496
0.296000	0.051418
0.297000	0.055035
0.298000	0.009659
0.299000	0.020510
0.300000	0.016564
0.301000	-0.009740
0.302000	0.012619
0.303000	0.028402
0.304000	-0.008754
0.305000	-0.002178
0.306000	0.006700
0.307000	0.019195
0.308000	-0.009083
0.309000	0.014920
0.310000	-0.024208
0.311000	-0.038347
0.312000	-0.042293
0.313000	-0.027825
0.314000	0.000782
0.315000	0.049446
0.316000	0.059968
0.317000	0.023798
0.318000	-0.040320
0.319000	-0.044266
0.320000	-0.056760
0.321000	0.024127
0.322000	0.028402
0.323000	0.026100
0.324000	0.036293
0.325000	0.015907
0.326000	0.009331
0.327000	0.008673
0.328000	-0.014344
0.329000	-0.014344
0.330000	-0.029798
0.331000	-0.001191
0.332000	0.028402
0.333000	0.030375
0.334000	0.037937
0.335000	0.023141
0.336000	0.033663
0.337000	0.017222
0.338000	0.013934
0.339000	-0.005466
0.340000	0.047144
0.341000	0.062927
0.342000	0.045500
0.343000	0.034649
0.344000	-0.050184
0.345000	-0.117262
0.346000	-0.129099
0.347000	-0.029140
0.348000	0.009988
0.349000	-0.043937
0.350000	-0.024208
0.351000	0.004398
0.352000	-0.030456
0.353000	-0.033744
0.354000	0.014263
0.355000	0.034978
0.356000	0.037937
0.357000	0.025114
0.358000	0.028402
0.359000	0.034978
0.360000	-0.000534
0.361000	-0.019934
0.362000	-0.029469
0.363000	-0.033415
0.364000	-0.006123
0.365000	0.009331
0.366000	-0.030784
0.367000	-0.068269
0.368000	-0.061364
0.369000	-0.019934
0.370000	0.087917
0.371000	0.157624
0.372000	0.132964
0.373000	0.084300
0.374000	0.061940
0.375000	0.014920
0.376000	0.006700
0.377000	-0.021249
0.378000	-0.043937
0.379000	-0.017961
0.380000	0.036622
0.381000	0.041883
0.382000	-0.008425
0.383000	-0.030127
0.384000	-0.069255
0.385000	-0.100492
0.386000	-0.085038
0.387000	-0.075174
0.388000	-0.002178
0.389000	0.051747
0.390000	0.089232
0.391000	0.108960
0.392000	0.118496
0.393000	0.000782
0.394000	-0.043937
0.395000	-0.046238
0.396000	-0.055774
0.397000	-0.043608
0.398000	0.017880
0.399000	0.002426
0.400000	0.067859
0.401000	0.008344
0.402000	-0.020262
0.403000	-0.032100
0.404000	-0.029140
0.405000	0.052405
0.406000	0.004070
0.407000	-0.044923
0.408000	-0.012700
0.409000	-0.034072
0.410000	-0.039662
0.411000	0.060625
0.412000	0.051418
0.413000	0.040897
0.414000	0.062927
0.415000	0.076079
0.416000	0.095479
0.417000	0.080354
0.418000	-0.012700
0.419000	-0.066296
0.420000	-0.089642
0.421000	-0.106740
0.422000	-0.064652
0.423000	-0.043279
0.424000	-0.021249
0.425000	0.003741
0.426000	-0.024208
0.427000	-0.035059
0.428000	0.002097
0.429000	-0.007110
0.430000	0.012948
0.431000	0.061612
0.432000	0.037608
0.433000	0.045500
0.434000	-0.001191
0.435000	-0.023550
0.436000	-0.001849
0.437000	0.033663
0.438000	0.065229
0.439000	0.085944
0.440000	0.117838
0.441000	0.041883
0.442000	-0.011713
0.443000	-0.036703
0.444000	-0.062350
0.445000	-0.057418
0.446000	-0.031442
0.447000	-0.013029
0.448000	0.002754
0.449000	-0.006123
0.450000	0.006043
0.451000	0.044185
0.452000	0.032019
0.453000	0.001439
0.454000	-0.007110
0.455000	-0.028483
0.456000	-0.048869
0.457000	-0.038347
0.458000	-0.016645
0.459000	0.024127
0.460000	0.041225
0.461000	0.036293
0.462000	0.023141
0.463000	0.006043
0.464000	-0.024866
0.465000	-0.017303
0.466000	0.001110
0.467000	0.042869
0.468000	0.058324
0.469000	0.049117
0.470000	0.008015
0.471000	-0.022235
0.472000	-0.045252
0.473000	-0.012042
0.474000	-0.005137
0.475000	0.007687
0.476000	0.008673
0.477000	-0.009740
0.478000	-0.020262
0.479000	-0.026510
0.480000	0.004070
0.481000	-0.005137
0.482000	0.006700
0.483000	0.003412
0.484000	-0.020591
0.485000	0.006371
0.486000	0.041883
0.487000	0.050432
0.488000	-0.002835
0.489000	-0.046896
0.490000	-0.060049
0.491000	-0.047225
0.492000	-0.015001
0.493000	-0.023222
0.494000	0.004727
0.495000	0.056022
0.496000	0.088903
0.497000	0.059968
0.498000	0.068517
0.499000	0.031690
0.500000	-0.009412
0.501000	-0.010069
0.502000	-0.053801
0.503000	-0.076489
0.504000	-0.069255
0.505000	-0.045910
0.506000	-0.042293
0.507000	-0.047225
0.508000	-0.028483
0.509000	0.033991
0.510000	0.037937
0.511000	0.070490
0.512000	0.058981
0.513000	0.004727
0.514000	-0.056432
0.515000	-0.079448
0.516000	-0.044923
0.517000	-0.021578
0.518000	0.054049
0.519000	0.078052
0.520000	0.048459
0.521000	0.007358
0.522000	-0.006781
0.523000	-0.033086
0.524000	0.021168
0.525000	0.028073
0.526000	0.074106
0.527000	0.062598
0.528000	0.028730
0.529000	0.019853
0.530000	0.023798
0.531000	0.007029
0.532000	0.004398
0.533000	-0.069584
0.534000	-0.097204
0.535000	-0.073201
0.536000	-0.086682
0.537000	-0.045581
0.538000	0.018866
0.539000	0.055364
0.540000	0.126387
0.541000	0.078381
0.542000	0.015907
0.543000	-0.004808
0.544000	0.014263
0.545000	0.011632
0.546000	0.014592
0.547000	0.023470
0.548000	0.010975
0.549000	-0.008096
0.550000	-0.023222
0.551000	-0.003493
0.552000	-0.007110
0.553000	-0.006781
0.554000	-0.009083
0.555000	-0.063994
0.556000	-0.076818
0.557000	-0.089970
0.558000	-0.063337
0.559000	-0.028483
0.560000	0.044842
0.561000	0.090876
0.562000	0.114879
0.563000	0.069503
0.564000	-0.018618
0.565000	-0.066296
0.566000	-0.057747
0.567000	-0.051499
0.568000	-0.001849
0.569000	0.047144
0.570000	0.083971
0.571000	0.071476
0.572000	0.052405
0.573000	-0.008754
0.574000	-0.012371
0.575000	-0.015001
0.576000	-0.027496
0.577000	-0.031113
0.578000	-0.016317
0.579000	0.026758
0.580000	0.018537
0.581000	0.006043
0.582000	-0.013357
0.583000	-0.029798
0.584000	0.019853
0.585000	0.101069
0.586000	0.058981
0.587000	0.023141
0.588000	-0.045581
0.589000	-0.070242
0.590000	-0.054130
0.591000	0.010646
0.592000	0.042212
0.593000	0.072791
0.594000	0.024127
0.595000	0.048459
0.596000	0.030703
0.597000	0.004070
0.598000	0.012948
0.599000	0.028402
0.600000	0.043198
0.601000	0.044513
0.602000	0.022812
0.603000	0.002097
0.604000	-0.031113
0.605000	-0.050184
0.606000	-0.056760
0.607000	-0.033415
0.608000	-0.020591
0.609000	-0.054788
0.610000	-0.043937
0.611000	-0.015001
0.612000	0.010646
0.613000	0.010317
0.614000	-0.003822
0.615000	-0.018947
0.616000	0.007029
0.617000	0.022483
0.618000	0.021168
0.619000	0.019524
0.620000	-0.015659
0.621000	-0.014344
0.622000	-0.002507
0.623000	0.020181
0.624000	0.001439
0.625000	-0.008425
0.626000	-0.009740
0.627000	-0.002507
0.628000	0.003412
0.629000	-0.006123
0.630000	-0.011056
0.631000	-0.007768
0.632000	-0.000534
0.633000	0.000124
0.634000	0.005056
0.635000	0.002754
0.636000	0.001768
0.637000	-0.004479
0.638000	0.006700
0.639000	0.012290
0.640000	0.003083
0.641000	0.001439
0.642000	-0.003164
0.643000	0.001110
0.644000	-0.009412
0.645000	-0.004151
0.646000	-0.006123
0.647000	-0.015659
0.648000	-0.009740
0.649000	-0.007110
0.650000	-0.014673
0.651000	-0.038347
0.652000	-0.026181
0.653000	-0.014673
0.654000	-0.014344
0.655000	0.021168
0.656000	0.034978
0.657000	0.029717
0.658000	-0.003164
0.659000	-0.017961
0.660000	-0.020262
0.661000	-0.010069
0.662000	-0.005795
0.663000	0.006700
0.664000	0.014592
0.665000	0.015907
0.666000	0.022483
0.667000	0.034649
0.668000	0.034649
0.669000	0.012948
0.670000	-0.012371
0.671000	-0.038347
0.672000	-0.049855
0.673000	-0.016974
0.674000	0.002426
0.675000	0.039252
0.676000	0.063584
0.677000	0.073449
0.678000	-0.014673
0.679000	-0.089313
0.680000	-0.080106
0.681000	-0.048211
0.682000	-0.005137
0.683000	0.076408
0.684000	0.089232
0.685000	0.118167
0.686000	0.050761
0.687000	-0.019934
0.688000	-0.074516
0.689000	-0.084052
0.690000	-0.067282
0.691000	0.001110
0.692000	0.011632
0.693000	-0.028811
0.694000	-0.025195
0.695000	0.011632
0.696000	0.001768
0.697000	0.028730
0.698000	0.087588
0.699000	0.042541
0.700000	0.009331
0.701000	0.006371
0.702000	0.007358
0.703000	-0.002835
0.704000	-0.011713
0.705000	-0.022564
0.706000	-0.061693
0.707000	-0.055116
0.708000	-0.053472
0.709000	-0.047554
0.710000	-0.039333
0.711000	-0.002835
0.712000	0.028402
0.713000	0.062269
0.714000	0.044513
0.715000	0.033005
0.716000	0.018866
0.717000	0.029059
0.718000	0.020181
0.719000	0.012619
0.720000	-0.000205
0.721000	0.001439
0.722000	-0.001520
0.723000	-0.004479
0.724000	-0.008754
0.725000	-0.011056
0.726000	-0.008425
0.727000	0.001439
0.728000	0.002097
0.729000	0.005385
0.730000	0.002097
0.731000	0.009002
0.732000	0.008344
0.733000	0.017880
0.734000	0.009988
0.735000	0.005056
0.736000	0.006043
0.737000	0.007687
0.738000	0.011303
0.739000	0.012948
0.740000	0.005056
0.741000	0.005056
0.742000	0.002426
0.743000	-0.001849
0.744000	0.005056
0.745000	-0.001849
0.746000	-0.004479
0.747000	-0.004151
0.748000	-0.003493
0.749000	-0.006781
0.750000	0.004727
0.751000	0.004727
0.752000	0.006043
0.753000	0.003741
0.754000	0.006371
0.755000	0.000453
0.756000	-0.005137
0.757000	-0.010398
0.758000	0.004070
0.759000	0.011303
0.760000	0.017222
0.761000	0.022483
0.762000	0.019853
0.763000	-0.007110
0.764000	-0.020591
0.765000	-0.006781
0.766000	0.005714
0.767000	0.006700
0.768000	0.007029
0.769000	0.008673
0.770000	-0.003164
0.771000	-0.018947
0.772000	-0.014673
0.773000	-0.007768
0.774000	-0.027167
0.775000	-0.081092
0.776000	-0.078791
0.777000	-0.043608
0.778000	-0.018290
0.779000	0.057337
0.780000	0.167489
0.781000	0.159269
0.782000	0.116523
0.783000	0.038924
0.784000	-0.015001
0.785000	-0.033744
0.786000	-0.026510
0.787000	-0.012042
0.788000	0.006700
0.789000	-0.014015
0.790000	-0.028154
0.791000	-0.005795
0.792000	0.034320
0.793000	0.035307
0.794000	0.051418
0.795000	0.030703
0.796000	0.013605
0.797000	-0.013357
0.798000	-0.003493
0.799000	0.001768
0.800000	0.015907
0.801000	0.013276
0.802000	0.009988
0.803000	-0.000534
0.804000	-0.026181
0.805000	-0.041635
0.806000	-0.026839
0.807000	-0.040649
0.808000	-0.035059
0.809000	-0.002507
0.810000	-0.005137
0.811000	0.004727
0.812000	-0.003164
0.813000	0.008015
0.814000	-0.001849
0.815000	0.003412
0.816000	0.010975
0.817000	0.012290
0.818000	0.013605
0.819000	0.012619
0.820000	0.011632
0.821000	0.001110
0.822000	0.007687
0.823000	0.000782
0.824000	-0.002507
0.825000	-0.000863
0.826000	0.003083
0.827000	0.002754
0.828000	-0.003822
0.829000	-0.005137
0.830000	0.003412
0.831000	0.008015
0.832000	0.006043
0.833000	0.009659
0.834000	0.011632
0.835000	0.006700
0.836000	0.011961
0.837000	0.008673
0.838000	0.009002
0.839000	0.009002
0.840000	-0.001520
0.841000	0.006043
0.842000	0.009331
0.843000	-0.009740
0.844000	-0.019276
0.845000	-0.004808
0.846000	-0.017961
0.847000	-0.016645
0.848000	-0.035717
0.849000	-0.044923
0.850000	-0.073859
0.851000	-0.143238
0.852000	-0.120879
0.853000	-0.026839
0.854000	0.050761
0.855000	0.146116
0.856000	0.250020
0.857000	0.251336
0.858000	0.143157
0.859000	0.050103
0.860000	0.008344
0.861000	-0.005795
0.862000	0.002097
0.863000	-0.009740
0.864000	-0.070242
0.865000	-0.116275
0.866000	-0.137977
0.867000	-0.134360
0.868000	-0.066625
0.869000	0.017222
0.870000	0.105344
0.871000	0.099754
0.872000	0.049117
0.873000	0.033663
0.874000	0.007687
0.875000	0.040239
0.876000	0.020510
0.877000	0.007687
0.878000	-0.015988
0.879000	-0.034730
0.880000	-0.059391
0.881000	-0.064981
0.882000	-0.013029
0.883000	0.005056
0.884000	-0.018947
0.885000	0.026758
0.886000	0.024785
0.887000	0.015907
0.888000	0.006371
0.889000	-0.014344
0.890000	-0.033086
0.891000	-0.033086
0.892000	-0.015988
0.893000	0.004070
0.894000	0.024785
0.895000	0.042212
0.896000	0.033663
0.897000	0.003083
0.898000	-0.018947
0.899000	-0.032100
0.900000	-0.036703
0.901000	-0.031771
0.902000	-0.007439
0.903000	-0.013029
0.904000	-0.022564
0.905000	-0.029140
0.906000	-0.036703
0.907000	-0.056760
0.908000	-0.022893
0.909000	0.019195
0.910000	0.035964
0.911000	0.052734
0.912000	0.063584
0.913000	0.028730
0.914000	0.037608
0.915000	0.047473
0.916000	0.009988
0.917000	-0.032100
0.918000	-0.036045
0.919000	-0.062350
0.920000	-0.098519
0.921000	-0.087340
0.922000	-0.012700
0.923000	0.048130
0.924000	0.060954
0.925000	0.125401
0.926000	0.118825
0.927000	0.054707
0.928000	-0.007439
0.929000	-0.017303
0.930000	-0.008425
0.931000	-0.005137
0.932000	0.029059
0.933000	0.028073
0.934000	0.026429
0.935000	0.005385
0.936000	-0.011384
0.937000	-0.031113
0.938000	-0.033415
0.939000	-0.025523
0.940000	-0.022235
0.941000	0.003083
0.942000	0.003083
0.943000	0.004070
0.944000	-0.015988
0.945000	-0.054788
0.946000	-0.053472
0.947000	-0.016317
0.948000	0.004398
0.949000	0.024456
0.950000	0.046157
0.951000	0.047144
0.952000	0.006043
0.953000	-0.014344
0.954000	-0.005137
0.955000	-0.027496
0.956000	-0.053472
0.957000	-0.021906
0.958000	-0.004151
0.959000	0.023470
0.960000	0.042212
0.961000	0.048788
0.962000	0.011961
0.963000	-0.009740
0.964000	-0.050184
0.965000	-0.088984
0.966000	-0.086353
0.967000	-0.057747
0.968000	-0.013357
0.969000	0.021497
0.970000	0.073120
0.971000	0.067530
0.972000	0.031690
0.973000	0.006700
0.974000	0.003741
0.975000	0.000782
0.976000	0.012290
0.977000	0.023141
0.978000	0.036293
0.979000	0.018209
0.980000	0.009988
0.981000	0.003741
0.982000	-0.013686
0.983000	-0.041635
0.984000	-0.020591
0.985000	-0.008096
0.986000	0.002097
0.987000	0.027086
0.988000	0.043856
0.989000	0.041225
0.990000	-0.003164
0.991000	-0.013029
0.992000	-0.019934
0.993000	-0.030456
0.994000	-0.015988
0.995000	-0.008096
0.996000	0.015578
0.997000	0.029388
0.998000	0.004070
0.999000	-0.033086

