LabVIEW Measurement	
Writer_Version	2
Reader_Version	2
Separator	Tab
Decimal_Separator	.
Multi_Headings	Yes
X_Columns	One
Time_Pref	Absolute
Operator	absf624
Date	2017/04/21
Time	15:12:32.1646739300350677433
***End_of_Header***	
	
Channels	1	
Samples	1000	
Date	2017/04/21	
Time	15:12:32.1646739300350677433	
Y_Unit_Label	Volts	
X_Dimension	Time	
X0	0.0000000000000000E+0	
Delta_X	0.001000	
***End_of_Header***		
X_Value	Voltage	Comment
0.000000	0.005056
0.001000	0.006043
0.002000	0.004070
0.003000	0.007029
0.004000	0.011632
0.005000	0.015907
0.006000	0.025442
0.007000	0.007687
0.008000	-0.002178
0.009000	-0.008425
0.010000	-0.026181
0.011000	-0.024866
0.012000	-0.013029
0.013000	-0.015001
0.014000	-0.005795
0.015000	0.017880
0.016000	0.009988
0.017000	0.012619
0.018000	0.010975
0.019000	0.015907
0.020000	0.014920
0.021000	0.019524
0.022000	0.025771
0.023000	0.023470
0.024000	0.034978
0.025000	0.016893
0.026000	0.005714
0.027000	-0.009412
0.028000	-0.014015
0.029000	-0.013029
0.030000	-0.016645
0.031000	-0.011713
0.032000	-0.012042
0.033000	0.008344
0.034000	0.020181
0.035000	0.027415
0.036000	0.025442
0.037000	0.016893
0.038000	0.024785
0.039000	0.022154
0.040000	0.014263
0.041000	0.015249
0.042000	0.017551
0.043000	0.017880
0.044000	0.018209
0.045000	0.007029
0.046000	0.004070
0.047000	0.003412
0.048000	-0.000205
0.049000	0.009988
0.050000	0.002097
0.051000	-0.001191
0.052000	-0.004151
0.053000	0.004727
0.054000	0.008344
0.055000	0.008344
0.056000	0.003741
0.057000	-0.003822
0.058000	0.008015
0.059000	0.010975
0.060000	0.010646
0.061000	0.008015
0.062000	-0.000205
0.063000	-0.002835
0.064000	0.001439
0.065000	0.007029
0.066000	-0.009740
0.067000	-0.018618
0.068000	-0.012371
0.069000	-0.002835
0.070000	-0.003822
0.071000	-0.000205
0.072000	0.001110
0.073000	-0.005466
0.074000	-0.000205
0.075000	0.000782
0.076000	0.001439
0.077000	0.008673
0.078000	0.010646
0.079000	0.007687
0.080000	-0.004479
0.081000	-0.002835
0.082000	-0.000863
0.083000	0.003741
0.084000	0.011303
0.085000	-0.006123
0.086000	0.003083
0.087000	0.004070
0.088000	-0.005795
0.089000	-0.006781
0.090000	-0.001191
0.091000	-0.000205
0.092000	0.010975
0.093000	0.025114
0.094000	0.023141
0.095000	0.019524
0.096000	0.019524
0.097000	0.016236
0.098000	0.008673
0.099000	0.017551
0.100000	0.015907
0.101000	0.008344
0.102000	0.006371
0.103000	-0.000863
0.104000	-0.001191
0.105000	0.001110
0.106000	0.001439
0.107000	-0.005137
0.108000	-0.000534
0.109000	-0.008754
0.110000	-0.009412
0.111000	-0.007768
0.112000	-0.015988
0.113000	-0.010398
0.114000	-0.007768
0.115000	0.006700
0.116000	0.009988
0.117000	0.009659
0.118000	0.005385
0.119000	0.011632
0.120000	0.027086
0.121000	0.026758
0.122000	0.018866
0.123000	0.029717
0.124000	0.019195
0.125000	0.010317
0.126000	0.001439
0.127000	-0.011713
0.128000	-0.020920
0.129000	-0.026181
0.130000	-0.026181
0.131000	-0.024208
0.132000	-0.009412
0.133000	-0.010069
0.134000	-0.003493
0.135000	0.000453
0.136000	0.008673
0.137000	0.013934
0.138000	0.020839
0.139000	0.015578
0.140000	0.011961
0.141000	0.020839
0.142000	0.020510
0.143000	0.026429
0.144000	0.032676
0.145000	0.028073
0.146000	0.017880
0.147000	0.010646
0.148000	0.006700
0.149000	0.015578
0.150000	0.006371
0.151000	0.005714
0.152000	0.003083
0.153000	0.014592
0.154000	0.019524
0.155000	0.017880
0.156000	0.015249
0.157000	0.013605
0.158000	0.015249
0.159000	0.015907
0.160000	0.019853
0.161000	0.017880
0.162000	0.015578
0.163000	0.025442
0.164000	0.011632
0.165000	-0.009740
0.166000	-0.002507
0.167000	-0.000534
0.168000	0.025114
0.169000	0.021168
0.170000	0.011961
0.171000	0.021497
0.172000	0.035964
0.173000	0.034978
0.174000	0.018537
0.175000	0.015578
0.176000	-0.013357
0.177000	-0.002178
0.178000	0.004070
0.179000	0.005385
0.180000	0.020839
0.181000	0.030046
0.182000	0.027744
0.183000	0.024127
0.184000	0.020181
0.185000	0.007687
0.186000	-0.009740
0.187000	-0.016974
0.188000	-0.018618
0.189000	-0.037361
0.190000	-0.042622
0.191000	-0.036703
0.192000	-0.037689
0.193000	-0.032100
0.194000	-0.027825
0.195000	-0.012042
0.196000	-0.012700
0.197000	-0.014015
0.198000	-0.008425
0.199000	-0.003822
0.200000	-0.005795
0.201000	-0.017303
0.202000	-0.022235
0.203000	-0.015001
0.204000	-0.005137
0.205000	-0.015988
0.206000	-0.017961
0.207000	-0.036374
0.208000	-0.052486
0.209000	-0.048540
0.210000	-0.056103
0.211000	-0.049855
0.212000	-0.050184
0.213000	-0.047883
0.214000	-0.050513
0.215000	-0.043937
0.216000	-0.014015
0.217000	-0.001849
0.218000	-0.013029
0.219000	-0.012700
0.220000	-0.011384
0.221000	-0.003164
0.222000	-0.002507
0.223000	0.003741
0.224000	-0.009740
0.225000	-0.008754
0.226000	-0.019276
0.227000	-0.018290
0.228000	-0.023879
0.229000	-0.017961
0.230000	-0.027167
0.231000	-0.009083
0.232000	-0.012371
0.233000	0.001439
0.234000	0.003741
0.235000	0.031361
0.236000	0.036622
0.237000	0.032019
0.238000	0.023470
0.239000	0.025442
0.240000	0.014592
0.241000	0.010975
0.242000	-0.006781
0.243000	-0.005137
0.244000	0.010317
0.245000	0.005714
0.246000	-0.015330
0.247000	0.007687
0.248000	0.051747
0.249000	0.038266
0.250000	0.029717
0.251000	-0.004151
0.252000	-0.022893
0.253000	-0.005795
0.254000	0.012948
0.255000	-0.012042
0.256000	-0.035717
0.257000	-0.037689
0.258000	-0.006123
0.259000	0.007029
0.260000	0.018537
0.261000	0.010975
0.262000	0.025114
0.263000	0.028402
0.264000	0.036622
0.265000	0.031690
0.266000	0.035964
0.267000	0.033663
0.268000	0.016564
0.269000	0.025114
0.270000	0.014592
0.271000	0.019853
0.272000	0.013276
0.273000	0.005714
0.274000	0.007358
0.275000	0.010646
0.276000	0.021497
0.277000	0.034649
0.278000	0.043527
0.279000	0.047473
0.280000	0.036293
0.281000	0.044185
0.282000	0.036293
0.283000	0.031690
0.284000	0.027415
0.285000	0.023798
0.286000	0.016893
0.287000	0.016564
0.288000	0.010975
0.289000	-0.003822
0.290000	-0.007110
0.291000	-0.008425
0.292000	-0.011713
0.293000	-0.002178
0.294000	-0.009412
0.295000	-0.012371
0.296000	-0.009083
0.297000	-0.008425
0.298000	0.007687
0.299000	0.009659
0.300000	0.007358
0.301000	0.006700
0.302000	0.007029
0.303000	0.009659
0.304000	0.010975
0.305000	0.008344
0.306000	-0.000205
0.307000	-0.001849
0.308000	0.002097
0.309000	0.003083
0.310000	0.001768
0.311000	0.001439
0.312000	-0.005795
0.313000	-0.015659
0.314000	-0.003164
0.315000	-0.005795
0.316000	-0.014344
0.317000	-0.004479
0.318000	0.003412
0.319000	-0.000205
0.320000	0.013276
0.321000	0.013605
0.322000	0.007358
0.323000	-0.005795
0.324000	-0.011384
0.325000	-0.005137
0.326000	0.002754
0.327000	0.013605
0.328000	-0.019605
0.329000	-0.019276
0.330000	-0.009412
0.331000	-0.001520
0.332000	0.008015
0.333000	-0.008425
0.334000	-0.013357
0.335000	-0.011056
0.336000	0.008673
0.337000	0.018866
0.338000	0.020839
0.339000	0.020839
0.340000	0.025114
0.341000	0.023470
0.342000	0.033663
0.343000	0.038266
0.344000	0.034978
0.345000	-0.008425
0.346000	-0.015988
0.347000	-0.026510
0.348000	-0.034730
0.349000	-0.033415
0.350000	-0.033415
0.351000	-0.020262
0.352000	-0.002835
0.353000	0.016893
0.354000	0.036293
0.355000	0.026758
0.356000	0.020839
0.357000	0.022483
0.358000	0.008015
0.359000	0.012290
0.360000	0.000453
0.361000	-0.006123
0.362000	0.010317
0.363000	0.017222
0.364000	0.009659
0.365000	0.013605
0.366000	0.018209
0.367000	0.012619
0.368000	0.007029
0.369000	0.002097
0.370000	0.001439
0.371000	-0.013686
0.372000	0.001768
0.373000	0.015578
0.374000	0.012948
0.375000	0.011961
0.376000	0.013276
0.377000	0.004727
0.378000	-0.004151
0.379000	0.005056
0.380000	0.010317
0.381000	0.006043
0.382000	0.010317
0.383000	0.005714
0.384000	0.008673
0.385000	0.022483
0.386000	0.016564
0.387000	0.020839
0.388000	0.014920
0.389000	0.012948
0.390000	-0.002507
0.391000	0.000782
0.392000	0.001768
0.393000	0.010646
0.394000	0.010646
0.395000	-0.001520
0.396000	-0.007768
0.397000	0.000124
0.398000	0.003083
0.399000	0.007358
0.400000	0.012948
0.401000	0.020510
0.402000	0.026100
0.403000	0.032019
0.404000	0.034978
0.405000	0.028730
0.406000	0.012290
0.407000	0.005056
0.408000	0.006700
0.409000	-0.000534
0.410000	-0.001191
0.411000	-0.004151
0.412000	-0.010398
0.413000	-0.008754
0.414000	-0.004479
0.415000	-0.000534
0.416000	0.004727
0.417000	0.015249
0.418000	0.008015
0.419000	0.016564
0.420000	0.024456
0.421000	0.020181
0.422000	0.022812
0.423000	0.019853
0.424000	0.014920
0.425000	0.017551
0.426000	0.022812
0.427000	0.011303
0.428000	0.009988
0.429000	0.005056
0.430000	0.004398
0.431000	0.005056
0.432000	0.005714
0.433000	-0.003164
0.434000	-0.012371
0.435000	-0.000534
0.436000	0.010975
0.437000	0.026100
0.438000	0.030046
0.439000	0.026429
0.440000	0.038595
0.441000	0.043527
0.442000	0.038924
0.443000	0.036293
0.444000	0.020510
0.445000	0.009331
0.446000	0.013605
0.447000	0.003083
0.448000	0.005385
0.449000	0.001110
0.450000	-0.005466
0.451000	-0.012700
0.452000	-0.003164
0.453000	0.006043
0.454000	0.009002
0.455000	-0.018618
0.456000	-0.009083
0.457000	-0.009083
0.458000	0.000782
0.459000	0.014920
0.460000	0.020510
0.461000	0.012948
0.462000	0.002097
0.463000	-0.020591
0.464000	-0.027825
0.465000	-0.016645
0.466000	-0.006781
0.467000	0.003083
0.468000	0.002754
0.469000	-0.001520
0.470000	0.000782
0.471000	0.011632
0.472000	-0.000534
0.473000	-0.004151
0.474000	0.001110
0.475000	0.019853
0.476000	0.019195
0.477000	0.003741
0.478000	-0.004479
0.479000	-0.018290
0.480000	-0.007768
0.481000	0.003412
0.482000	-0.004479
0.483000	-0.007439
0.484000	-0.009412
0.485000	-0.006123
0.486000	-0.006123
0.487000	-0.004479
0.488000	-0.004808
0.489000	-0.014673
0.490000	-0.012700
0.491000	-0.013029
0.492000	-0.012371
0.493000	-0.011713
0.494000	-0.008754
0.495000	0.002754
0.496000	-0.008096
0.497000	-0.011384
0.498000	-0.013357
0.499000	-0.014015
0.500000	-0.012700
0.501000	-0.014673
0.502000	0.000453
0.503000	0.002754
0.504000	-0.000534
0.505000	-0.003493
0.506000	-0.006781
0.507000	-0.016645
0.508000	-0.008425
0.509000	-0.014344
0.510000	-0.029140
0.511000	-0.045910
0.512000	-0.066954
0.513000	-0.057418
0.514000	-0.039005
0.515000	-0.029469
0.516000	-0.029798
0.517000	-0.024208
0.518000	-0.013357
0.519000	0.000782
0.520000	0.009659
0.521000	0.000782
0.522000	-0.009412
0.523000	-0.006781
0.524000	-0.007110
0.525000	-0.032100
0.526000	-0.048869
0.527000	-0.031771
0.528000	-0.028483
0.529000	-0.014015
0.530000	-0.013357
0.531000	-0.019276
0.532000	-0.013686
0.533000	-0.011713
0.534000	-0.034072
0.535000	-0.037689
0.536000	-0.018290
0.537000	-0.011384
0.538000	-0.011384
0.539000	0.001110
0.540000	0.016564
0.541000	0.011632
0.542000	0.013934
0.543000	-0.006452
0.544000	-0.011713
0.545000	-0.023550
0.546000	-0.017632
0.547000	-0.013686
0.548000	-0.015001
0.549000	-0.022235
0.550000	-0.031442
0.551000	-0.030127
0.552000	-0.017632
0.553000	-0.008096
0.554000	-0.021249
0.555000	-0.031113
0.556000	-0.029469
0.557000	-0.018947
0.558000	-0.017632
0.559000	-0.009412
0.560000	-0.009740
0.561000	-0.008096
0.562000	-0.001191
0.563000	0.008015
0.564000	0.014920
0.565000	0.001768
0.566000	-0.008425
0.567000	-0.009083
0.568000	-0.007768
0.569000	-0.010727
0.570000	-0.021906
0.571000	-0.018618
0.572000	-0.018947
0.573000	-0.018290
0.574000	-0.021249
0.575000	-0.015988
0.576000	-0.009740
0.577000	-0.000863
0.578000	0.003412
0.579000	-0.003164
0.580000	0.013934
0.581000	0.015249
0.582000	0.009002
0.583000	-0.001520
0.584000	-0.003164
0.585000	0.000782
0.586000	-0.003493
0.587000	-0.006452
0.588000	-0.013029
0.589000	-0.010069
0.590000	-0.015001
0.591000	-0.013686
0.592000	-0.016974
0.593000	-0.018947
0.594000	-0.015988
0.595000	-0.025523
0.596000	-0.014015
0.597000	0.000782
0.598000	-0.015330
0.599000	-0.010727
0.600000	-0.011384
0.601000	-0.009083
0.602000	-0.009412
0.603000	-0.009740
0.604000	-0.018947
0.605000	-0.015659
0.606000	-0.022235
0.607000	-0.017961
0.608000	-0.021249
0.609000	-0.020920
0.610000	-0.035388
0.611000	-0.045581
0.612000	-0.040649
0.613000	-0.019605
0.614000	-0.019605
0.615000	-0.022235
0.616000	-0.011384
0.617000	0.009331
0.618000	0.012619
0.619000	0.015907
0.620000	0.019524
0.621000	0.031690
0.622000	0.033991
0.623000	0.033663
0.624000	0.024127
0.625000	0.023798
0.626000	0.016893
0.627000	0.014263
0.628000	0.004070
0.629000	0.002426
0.630000	-0.001849
0.631000	0.000124
0.632000	-0.005795
0.633000	-0.018290
0.634000	-0.022564
0.635000	-0.013029
0.636000	-0.005795
0.637000	0.002754
0.638000	0.011632
0.639000	0.010646
0.640000	0.031361
0.641000	0.025771
0.642000	0.038924
0.643000	0.036622
0.644000	0.031032
0.645000	0.018866
0.646000	0.012948
0.647000	0.007029
0.648000	0.008673
0.649000	-0.008425
0.650000	-0.020591
0.651000	-0.017961
0.652000	-0.014015
0.653000	-0.004151
0.654000	-0.009740
0.655000	0.009988
0.656000	0.019195
0.657000	0.025442
0.658000	0.027744
0.659000	0.025771
0.660000	0.025114
0.661000	0.013276
0.662000	0.018209
0.663000	0.011961
0.664000	0.012948
0.665000	0.015907
0.666000	0.017222
0.667000	0.019524
0.668000	0.015249
0.669000	0.028402
0.670000	0.030375
0.671000	0.021825
0.672000	0.010317
0.673000	0.009988
0.674000	0.012948
0.675000	0.011961
0.676000	0.013605
0.677000	0.013605
0.678000	0.023798
0.679000	0.020839
0.680000	0.033005
0.681000	0.029388
0.682000	0.040568
0.683000	0.043198
0.684000	0.035307
0.685000	0.026429
0.686000	-0.008754
0.687000	-0.018290
0.688000	-0.013357
0.689000	0.012948
0.690000	0.015578
0.691000	0.028730
0.692000	0.027744
0.693000	0.019853
0.694000	0.011961
0.695000	-0.005137
0.696000	-0.012042
0.697000	-0.015330
0.698000	-0.008754
0.699000	-0.005137
0.700000	0.022154
0.701000	0.044185
0.702000	0.036622
0.703000	0.029059
0.704000	0.024785
0.705000	0.011961
0.706000	-0.000534
0.707000	0.000453
0.708000	-0.003493
0.709000	-0.003493
0.710000	-0.008096
0.711000	-0.000534
0.712000	0.010317
0.713000	0.013934
0.714000	0.008673
0.715000	0.004070
0.716000	-0.005466
0.717000	-0.004151
0.718000	0.006700
0.719000	0.008015
0.720000	0.022812
0.721000	0.017551
0.722000	0.019524
0.723000	0.002754
0.724000	0.022812
0.725000	0.013934
0.726000	0.007029
0.727000	0.009002
0.728000	-0.007439
0.729000	-0.003493
0.730000	-0.003164
0.731000	-0.010398
0.732000	-0.002835
0.733000	-0.006452
0.734000	-0.002178
0.735000	0.002754
0.736000	0.005385
0.737000	-0.005137
0.738000	-0.018947
0.739000	-0.016974
0.740000	-0.007768
0.741000	0.012948
0.742000	0.018537
0.743000	0.031032
0.744000	0.030375
0.745000	0.022812
0.746000	0.022812
0.747000	0.023470
0.748000	0.002426
0.749000	-0.012042
0.750000	-0.020262
0.751000	-0.020262
0.752000	-0.023222
0.753000	-0.015001
0.754000	-0.012700
0.755000	-0.001520
0.756000	-0.000205
0.757000	0.012948
0.758000	0.015249
0.759000	0.013605
0.760000	0.007358
0.761000	0.003083
0.762000	-0.008754
0.763000	-0.006452
0.764000	-0.008425
0.765000	-0.015001
0.766000	-0.011384
0.767000	-0.015330
0.768000	0.003412
0.769000	-0.005137
0.770000	-0.020591
0.771000	-0.029798
0.772000	-0.018290
0.773000	-0.007768
0.774000	-0.007439
0.775000	-0.010727
0.776000	-0.008425
0.777000	0.014263
0.778000	0.022483
0.779000	0.026429
0.780000	0.013276
0.781000	0.014263
0.782000	0.016893
0.783000	0.008344
0.784000	0.017880
0.785000	0.017222
0.786000	0.017551
0.787000	0.001439
0.788000	-0.001191
0.789000	-0.013357
0.790000	-0.020591
0.791000	-0.003164
0.792000	0.000124
0.793000	0.009002
0.794000	0.003412
0.795000	-0.014344
0.796000	-0.025195
0.797000	-0.007768
0.798000	0.001768
0.799000	0.007358
0.800000	0.010646
0.801000	0.012948
0.802000	0.027086
0.803000	0.022812
0.804000	0.004398
0.805000	-0.009083
0.806000	-0.018947
0.807000	-0.014673
0.808000	-0.005466
0.809000	-0.010727
0.810000	-0.009412
0.811000	-0.003493
0.812000	0.003741
0.813000	0.005385
0.814000	0.000124
0.815000	-0.007768
0.816000	-0.012700
0.817000	-0.015001
0.818000	-0.008754
0.819000	-0.005795
0.820000	-0.013686
0.821000	-0.024866
0.822000	-0.011056
0.823000	-0.009412
0.824000	-0.006781
0.825000	-0.003493
0.826000	-0.002178
0.827000	0.003412
0.828000	-0.000205
0.829000	0.010646
0.830000	-0.000863
0.831000	0.006371
0.832000	-0.001849
0.833000	-0.003493
0.834000	-0.012042
0.835000	-0.018290
0.836000	-0.020591
0.837000	-0.020262
0.838000	-0.015001
0.839000	-0.014344
0.840000	0.012619
0.841000	0.016236
0.842000	0.008673
0.843000	0.023470
0.844000	0.008673
0.845000	0.002426
0.846000	-0.006781
0.847000	-0.019605
0.848000	-0.015001
0.849000	-0.023550
0.850000	-0.018290
0.851000	-0.016317
0.852000	-0.017632
0.853000	-0.014673
0.854000	-0.027167
0.855000	-0.029469
0.856000	-0.023222
0.857000	-0.011384
0.858000	-0.002835
0.859000	0.001768
0.860000	0.011961
0.861000	0.007358
0.862000	0.014920
0.863000	0.013276
0.864000	0.008344
0.865000	0.003412
0.866000	0.003412
0.867000	-0.000534
0.868000	0.010975
0.869000	0.015907
0.870000	0.001768
0.871000	-0.003493
0.872000	-0.010069
0.873000	-0.003822
0.874000	-0.009412
0.875000	-0.017632
0.876000	-0.018947
0.877000	-0.017961
0.878000	-0.019605
0.879000	-0.001520
0.880000	0.019853
0.881000	0.005056
0.882000	0.009659
0.883000	0.015578
0.884000	0.015249
0.885000	-0.001520
0.886000	-0.030456
0.887000	-0.038676
0.888000	-0.025195
0.889000	-0.015659
0.890000	-0.025852
0.891000	-0.008754
0.892000	0.018537
0.893000	0.023798
0.894000	0.013934
0.895000	0.020181
0.896000	0.004398
0.897000	-0.012042
0.898000	-0.017961
0.899000	-0.003493
0.900000	-0.007110
0.901000	-0.027825
0.902000	-0.019605
0.903000	-0.010727
0.904000	0.014920
0.905000	0.026758
0.906000	0.034978
0.907000	0.031032
0.908000	0.025114
0.909000	0.013605
0.910000	-0.012042
0.911000	-0.015001
0.912000	-0.032100
0.913000	-0.043937
0.914000	-0.043279
0.915000	-0.024866
0.916000	-0.010069
0.917000	-0.004479
0.918000	0.017551
0.919000	0.018866
0.920000	0.024127
0.921000	0.021168
0.922000	0.018537
0.923000	0.022154
0.924000	0.015249
0.925000	-0.003493
0.926000	-0.008425
0.927000	-0.014673
0.928000	-0.029140
0.929000	-0.027825
0.930000	-0.029140
0.931000	-0.025195
0.932000	-0.015001
0.933000	-0.006123
0.934000	-0.003164
0.935000	0.006371
0.936000	0.007687
0.937000	0.016236
0.938000	0.026429
0.939000	0.024456
0.940000	-0.003822
0.941000	-0.000534
0.942000	0.005385
0.943000	-0.001520
0.944000	0.003083
0.945000	-0.003822
0.946000	0.003412
0.947000	-0.030456
0.948000	-0.031771
0.949000	-0.027496
0.950000	-0.031771
0.951000	-0.030127
0.952000	-0.032428
0.953000	-0.013686
0.954000	-0.001520
0.955000	0.005714
0.956000	0.000453
0.957000	-0.022564
0.958000	-0.026510
0.959000	-0.008754
0.960000	-0.009412
0.961000	0.017551
0.962000	0.034978
0.963000	0.050103
0.964000	0.066873
0.965000	0.025442
0.966000	-0.014015
0.967000	-0.026181
0.968000	-0.025195
0.969000	-0.038018
0.970000	0.004070
0.971000	0.043527
0.972000	0.031032
0.973000	0.036951
0.974000	0.040568
0.975000	0.032347
0.976000	-0.001520
0.977000	0.000453
0.978000	0.005385
0.979000	-0.016317
0.980000	-0.017961
0.981000	-0.020591
0.982000	-0.013686
0.983000	0.011632
0.984000	0.025442
0.985000	0.015249
0.986000	0.025114
0.987000	0.030046
0.988000	0.004398
0.989000	-0.009412
0.990000	-0.014673
0.991000	-0.003822
0.992000	-0.020920
0.993000	-0.017632
0.994000	0.004398
0.995000	0.008673
0.996000	0.001439
0.997000	0.015907
0.998000	-0.008754
0.999000	-0.004151
1.000000	0.009659
1.001000	0.007687
1.002000	0.013605
1.003000	0.033663
1.004000	0.025771
1.005000	0.011632
1.006000	0.025114
1.007000	0.019524
1.008000	-0.000205
1.009000	0.007029
1.010000	0.001439
1.011000	0.013934
1.012000	0.009002
1.013000	0.020181
1.014000	0.040239
1.015000	0.030046
1.016000	0.004398
1.017000	0.005056
1.018000	0.006371
1.019000	0.017880
1.020000	0.015907
1.021000	0.013276
1.022000	-0.007110
1.023000	0.013276
1.024000	0.038266
1.025000	0.057337
1.026000	0.063256
1.027000	0.084628
1.028000	0.065886
1.029000	0.039910
1.030000	0.022483
1.031000	0.013276
1.032000	-0.003493
1.033000	0.007687
1.034000	-0.003164
1.035000	0.012619
1.036000	0.025442
1.037000	0.025771
1.038000	0.007358
1.039000	0.020181
1.040000	0.026429
1.041000	0.025114
1.042000	0.001439
1.043000	-0.000205
1.044000	-0.007110
1.045000	-0.003493
1.046000	-0.012042
1.047000	-0.000205
1.048000	0.005056
1.049000	0.029717
1.050000	-0.007439
1.051000	-0.023550
1.052000	-0.027825
1.053000	0.000782
1.054000	0.010646
1.055000	0.019195
1.056000	0.001768
1.057000	-0.002178
1.058000	-0.014015
1.059000	0.016893
1.060000	0.016564
1.061000	0.032347
1.062000	0.033663
1.063000	0.036293
1.064000	0.001768
1.065000	0.010317
1.066000	0.014920
1.067000	0.019524
1.068000	0.003412
1.069000	0.010975
1.070000	0.006700
1.071000	-0.000863
1.072000	0.002754
1.073000	0.010975
1.074000	-0.005466
1.075000	-0.002507
1.076000	-0.000863
1.077000	0.026100
1.078000	0.010975
1.079000	0.011303
1.080000	0.015578
1.081000	0.010646
1.082000	0.019524
1.083000	0.015907
1.084000	0.001768
1.085000	-0.003493
1.086000	-0.010398
1.087000	0.002426
1.088000	0.001110
1.089000	0.009331
1.090000	-0.002178
1.091000	-0.005795
1.092000	-0.008096
1.093000	-0.001520
1.094000	0.001768
1.095000	0.005714
1.096000	0.004070
1.097000	0.007358
1.098000	0.009988
1.099000	0.009331
1.100000	0.006043
1.101000	0.014263
1.102000	0.001439
1.103000	-0.000863
1.104000	-0.010727
1.105000	-0.012700
1.106000	-0.001191
1.107000	-0.008425
1.108000	-0.015988
1.109000	-0.002835
1.110000	-0.009412
1.111000	-0.007439
1.112000	-0.000863
1.113000	0.001439
1.114000	-0.012042
1.115000	0.001110
1.116000	-0.000205
1.117000	-0.010069
1.118000	-0.009083
1.119000	0.009659
1.120000	-0.000534
1.121000	0.010646
1.122000	0.008344
1.123000	0.008015
1.124000	0.002754
1.125000	0.007029
1.126000	-0.005137
1.127000	-0.009740
1.128000	-0.004808
1.129000	-0.008096
1.130000	-0.010069
1.131000	0.007687
1.132000	0.013934
1.133000	-0.005795
1.134000	-0.016645
1.135000	0.002426
1.136000	0.009002
1.137000	0.002097
1.138000	0.010975
1.139000	0.016236
1.140000	0.012290
1.141000	-0.004808
1.142000	0.001768
1.143000	0.004070
1.144000	-0.017632
1.145000	-0.005137
1.146000	0.002754
1.147000	0.009988
1.148000	0.022812
1.149000	0.016236
1.150000	-0.003164
1.151000	-0.018618
1.152000	-0.038347
1.153000	-0.039662
1.154000	-0.032428
1.155000	-0.029140
1.156000	-0.001520
1.157000	0.025442
1.158000	0.041554
1.159000	0.035307
1.160000	0.046157
1.161000	0.062269
1.162000	0.059968
1.163000	0.025442
1.164000	0.006371
1.165000	-0.010398
1.166000	-0.008754
1.167000	-0.016317
1.168000	-0.017303
1.169000	-0.000863
1.170000	-0.002507
1.171000	-0.008096
1.172000	-0.006781
1.173000	-0.007439
1.174000	-0.013357
1.175000	-0.013686
1.176000	-0.005795
1.177000	-0.008425
1.178000	-0.004479
1.179000	-0.005795
1.180000	0.000124
1.181000	-0.001849
1.182000	-0.010727
1.183000	-0.015001
1.184000	-0.015330
1.185000	-0.019605
1.186000	0.000782
1.187000	0.002426
1.188000	0.012948
1.189000	0.006371
1.190000	-0.003164
1.191000	0.011303
1.192000	0.006700
1.193000	-0.008425
1.194000	-0.023550
1.195000	-0.001520
1.196000	0.000782
1.197000	0.006700
1.198000	0.016236
1.199000	0.016236
1.200000	0.032347
1.201000	0.029059
1.202000	0.007687
1.203000	-0.011056
1.204000	-0.018290
1.205000	-0.023222
1.206000	-0.017632
1.207000	-0.018947
1.208000	-0.008096
1.209000	-0.006781
1.210000	0.003083
1.211000	0.001439
1.212000	-0.009740
1.213000	-0.014015
1.214000	-0.011713
1.215000	-0.012042
1.216000	-0.014344
1.217000	-0.019934
1.218000	-0.015659
1.219000	-0.017632
1.220000	-0.010727
1.221000	-0.009083
1.222000	-0.013686
1.223000	-0.031113
1.224000	-0.034730
1.225000	-0.025852
1.226000	-0.008425
1.227000	-0.014673
1.228000	-0.026181
1.229000	-0.028811
1.230000	-0.011713
1.231000	-0.002835
1.232000	0.004727
1.233000	-0.015001
1.234000	0.001110
1.235000	-0.009083
1.236000	-0.012371
1.237000	-0.008754
1.238000	-0.023550
1.239000	-0.028483
1.240000	-0.036374
1.241000	-0.029798
1.242000	-0.010727
1.243000	0.005056
1.244000	0.017880
1.245000	0.009659
1.246000	-0.002507
1.247000	-0.016645
1.248000	-0.033744
1.249000	-0.026181
1.250000	-0.015659
1.251000	-0.010069
1.252000	-0.010398
1.253000	0.002097
1.254000	-0.004151
1.255000	-0.011056
1.256000	-0.020920
1.257000	-0.022893
1.258000	-0.022564
1.259000	-0.018290
1.260000	0.006043
1.261000	-0.008096
1.262000	-0.009083
1.263000	0.009331
1.264000	0.013276
1.265000	0.006043
1.266000	-0.008754
1.267000	-0.005795
1.268000	0.003741
1.269000	-0.006123
1.270000	-0.015330
1.271000	-0.011056
1.272000	-0.006123
1.273000	-0.025195
1.274000	-0.035388
1.275000	-0.042293
1.276000	-0.047554
1.277000	-0.034401
1.278000	-0.013686
1.279000	0.004398
1.280000	0.011961
1.281000	0.010975
1.282000	0.020181
1.283000	0.020839
1.284000	0.022483
1.285000	-0.022893
1.286000	-0.034730
1.287000	-0.028811
1.288000	-0.017632
1.289000	0.010975
1.290000	0.024785
1.291000	0.050432
1.292000	0.069503
1.293000	0.061612
1.294000	0.034320
1.295000	-0.002178
1.296000	-0.003493
1.297000	0.006043
1.298000	0.028073
1.299000	0.015907
1.300000	0.008344
1.301000	-0.002835
1.302000	-0.012700
1.303000	-0.034072
1.304000	-0.029140
1.305000	-0.026510
1.306000	-0.041964
1.307000	-0.054459
1.308000	-0.032100
1.309000	-0.004479
1.310000	0.015249
1.311000	0.011632
1.312000	-0.003822
1.313000	0.001110
1.314000	0.019195
1.315000	0.012619
1.316000	0.003412
1.317000	-0.008425
1.318000	-0.004808
1.319000	-0.009083
1.320000	-0.004808
1.321000	0.002097
1.322000	-0.009740
1.323000	-0.005795
1.324000	-0.001849
1.325000	-0.005795
1.326000	-0.014344
1.327000	-0.010398
1.328000	-0.015330
1.329000	-0.014673
1.330000	-0.011713
1.331000	-0.005795
1.332000	0.001768
1.333000	-0.003164
1.334000	-0.001520
1.335000	-0.007110
1.336000	-0.015001
1.337000	-0.009412
1.338000	-0.010727
1.339000	-0.009740
1.340000	0.003741
1.341000	0.002754
1.342000	-0.015001
1.343000	0.002426
1.344000	0.009002
1.345000	0.018209
1.346000	0.018209
1.347000	0.023141
1.348000	0.024127
1.349000	0.008673
1.350000	-0.000534
1.351000	-0.020920
1.352000	-0.025852
1.353000	-0.036374
1.354000	-0.035388
1.355000	-0.031442
1.356000	-0.020591
1.357000	-0.012042
1.358000	-0.009412
1.359000	-0.012042
1.360000	-0.001520
1.361000	0.008673
1.362000	-0.004151
1.363000	-0.007110
1.364000	-0.008096
1.365000	0.004070
1.366000	-0.002835
1.367000	0.000453
1.368000	-0.014344
1.369000	-0.010398
1.370000	-0.023550
1.371000	-0.017632
1.372000	-0.017632
1.373000	-0.013357
1.374000	-0.022564
1.375000	-0.017961
1.376000	-0.012371
1.377000	-0.007768
1.378000	0.001110
1.379000	0.000453
1.380000	-0.009740
1.381000	-0.001849
1.382000	-0.001520
1.383000	-0.005466
1.384000	-0.010069
1.385000	-0.011384
1.386000	-0.013029
1.387000	-0.022893
1.388000	-0.015988
1.389000	-0.016645
1.390000	-0.015988
1.391000	-0.012700
1.392000	0.003741
1.393000	0.019853
1.394000	0.017551
1.395000	0.000782
1.396000	-0.036703
1.397000	-0.043608
1.398000	-0.037361
1.399000	-0.019276
1.400000	-0.027825
1.401000	-0.048211
1.402000	-0.033415
1.403000	0.016236
1.404000	0.045500
1.405000	0.039252
1.406000	0.044185
1.407000	0.067859
1.408000	0.071805
1.409000	0.046815
1.410000	0.026429
1.411000	0.016236
1.412000	0.000124
1.413000	-0.011056
1.414000	0.001768
1.415000	-0.026181
1.416000	-0.034401
1.417000	-0.040320
1.418000	-0.028483
1.419000	-0.024537
1.420000	-0.024208
1.421000	-0.017303
1.422000	-0.012042
1.423000	-0.016645
1.424000	-0.021906
1.425000	-0.009412
1.426000	-0.014344
1.427000	-0.011713
1.428000	-0.018947
1.429000	-0.014015
1.430000	-0.013029
1.431000	-0.014673
1.432000	-0.027167
1.433000	-0.033744
1.434000	-0.020920
1.435000	-0.010069
1.436000	0.005056
1.437000	0.008673
1.438000	0.009002
1.439000	-0.005137
1.440000	-0.009412
1.441000	-0.012371
1.442000	-0.003822
1.443000	-0.007768
1.444000	0.004727
1.445000	0.001768
1.446000	0.002097
1.447000	0.002426
1.448000	0.009002
1.449000	0.000124
1.450000	0.000453
1.451000	-0.002835
1.452000	-0.003493
1.453000	-0.007110
1.454000	-0.003822
1.455000	-0.004479
1.456000	-0.001520
1.457000	-0.004808
1.458000	0.010317
1.459000	0.003741
1.460000	0.001439
1.461000	0.014920
1.462000	0.008673
1.463000	0.009659
1.464000	0.015249
1.465000	0.009659
1.466000	0.007029
1.467000	0.008015
1.468000	0.007358
1.469000	0.007029
1.470000	0.003741
1.471000	0.006371
1.472000	-0.004479
1.473000	-0.006781
1.474000	-0.004808
1.475000	-0.001849
1.476000	0.004398
1.477000	0.004070
1.478000	0.000453
1.479000	-0.002835
1.480000	0.007358
1.481000	0.008015
1.482000	0.009659
1.483000	0.004398
1.484000	0.005385
1.485000	0.010975
1.486000	-0.000534
1.487000	0.008344
1.488000	0.004727
1.489000	-0.005466
1.490000	-0.006781
1.491000	0.000453
1.492000	-0.001849
1.493000	-0.002178
1.494000	0.010317
1.495000	0.004398
1.496000	0.001439
1.497000	-0.000863
1.498000	0.006700
1.499000	0.012948
1.500000	0.009988
1.501000	0.008673
1.502000	0.020181
1.503000	0.016236
1.504000	0.017880
1.505000	0.013276
1.506000	0.009331
1.507000	0.001768
1.508000	-0.002835
1.509000	-0.001191
1.510000	0.001110
1.511000	0.009988
1.512000	-0.002178
1.513000	-0.001191
1.514000	0.003083
1.515000	0.001768
1.516000	0.007029
1.517000	0.009002
1.518000	0.013934
1.519000	0.019195
1.520000	0.037608
1.521000	0.064571
1.522000	0.064900
1.523000	0.067530
1.524000	0.059639
1.525000	0.056679
1.526000	0.046815
1.527000	0.043198
1.528000	0.033991
1.529000	0.038924
1.530000	0.027744
1.531000	0.033005
1.532000	0.010317
1.533000	0.001768
1.534000	-0.026510
1.535000	-0.026510
1.536000	-0.008425
1.537000	0.020181
1.538000	0.043198
1.539000	0.039910
1.540000	0.040239
1.541000	0.043527
1.542000	0.043527
1.543000	0.031361
1.544000	0.010646
1.545000	0.006043
1.546000	0.008344
1.547000	0.029717
1.548000	0.036293
1.549000	0.029388
1.550000	0.029717
1.551000	0.022483
1.552000	0.026758
1.553000	0.017222
1.554000	0.008015
1.555000	-0.005466
1.556000	0.004070
1.557000	-0.011713
1.558000	-0.018618
1.559000	0.011632
1.560000	0.019853
1.561000	0.027086
1.562000	0.038595
1.563000	0.039252
1.564000	0.035964
1.565000	0.024785
1.566000	0.010317
1.567000	0.004727
1.568000	0.014920
1.569000	0.023141
1.570000	0.022483
1.571000	0.023470
1.572000	0.018866
1.573000	0.026758
1.574000	0.016893
1.575000	0.012290
1.576000	0.010317
1.577000	0.009659
1.578000	0.004070
1.579000	-0.004151
1.580000	0.000453
1.581000	0.017551
1.582000	0.014263
1.583000	0.012290
1.584000	0.012948
1.585000	0.018866
1.586000	0.007358
1.587000	0.000124
1.588000	-0.003822
1.589000	-0.010069
1.590000	-0.008425
1.591000	-0.004151
1.592000	-0.015659
1.593000	-0.002835
1.594000	-0.006452
1.595000	-0.015659
1.596000	-0.010398
1.597000	0.001768
1.598000	0.005714
1.599000	0.012290
1.600000	0.016236
1.601000	0.014920
1.602000	0.015249
1.603000	0.012290
1.604000	0.007029
1.605000	0.007358
1.606000	-0.005466
1.607000	0.001110
1.608000	0.007029
1.609000	0.005385
1.610000	0.000782
1.611000	-0.004151
1.612000	-0.008754
1.613000	-0.008754
1.614000	-0.006452
1.615000	0.007358
1.616000	0.006700
1.617000	0.004398
1.618000	-0.002507
1.619000	-0.001520
1.620000	0.005056
1.621000	0.005056
1.622000	-0.008754
1.623000	-0.028154
1.624000	-0.015659
1.625000	-0.004479
1.626000	-0.007768
1.627000	-0.007768
1.628000	-0.005795
1.629000	-0.010069
1.630000	-0.017961
1.631000	-0.008425
1.632000	-0.001191
1.633000	-0.014015
1.634000	-0.010069
1.635000	0.001110
1.636000	0.010317
1.637000	0.015249
1.638000	0.008015
1.639000	0.002426
1.640000	0.009659
1.641000	0.013276
1.642000	0.014920
1.643000	0.013276
1.644000	0.011303
1.645000	0.004727
1.646000	-0.003493
1.647000	-0.010398
1.648000	-0.007768
1.649000	0.003741
1.650000	0.000782
1.651000	0.004070
1.652000	-0.000205
1.653000	0.002754
1.654000	0.002426
1.655000	-0.004808
1.656000	-0.002835
1.657000	0.000782
1.658000	0.002754
1.659000	0.010317
1.660000	0.003412
1.661000	0.017880
1.662000	0.018209
1.663000	0.023141
1.664000	0.020181
1.665000	0.024456
1.666000	0.019524
1.667000	0.011632
1.668000	0.006371
1.669000	-0.000534
1.670000	-0.008425
1.671000	-0.028811
1.672000	-0.032757
1.673000	-0.030456
1.674000	-0.019276
1.675000	-0.004808
1.676000	0.017222
1.677000	0.041225
1.678000	0.054049
1.679000	0.053720
1.680000	0.047144
1.681000	0.043527
1.682000	0.023141
1.683000	0.017222
1.684000	0.007358
1.685000	-0.002835
1.686000	0.001768
1.687000	-0.004808
1.688000	-0.028811
1.689000	-0.025195
1.690000	-0.023550
1.691000	-0.019276
1.692000	-0.018947
1.693000	-0.004808
1.694000	0.015249
1.695000	0.040239
1.696000	0.038924
1.697000	0.029388
1.698000	0.017551
1.699000	0.005056
1.700000	0.004070
1.701000	-0.004151
1.702000	-0.022564
1.703000	-0.016974
1.704000	-0.007439
1.705000	-0.000534
1.706000	0.005385
1.707000	0.010317
1.708000	0.008673
1.709000	0.014920
1.710000	0.002754
1.711000	-0.005795
1.712000	-0.018947
1.713000	-0.019934
1.714000	-0.026839
1.715000	-0.020920
1.716000	-0.014015
1.717000	-0.020262
1.718000	-0.004808
1.719000	0.008015
1.720000	0.015578
1.721000	0.008673
1.722000	0.030703
1.723000	0.036622
1.724000	0.022483
1.725000	0.021497
1.726000	0.012619
1.727000	-0.004479
1.728000	-0.007110
1.729000	-0.010398
1.730000	-0.014344
1.731000	-0.006123
1.732000	-0.010727
1.733000	-0.009412
1.734000	-0.020920
1.735000	-0.004151
1.736000	-0.003822
1.737000	0.004070
1.738000	-0.008425
1.739000	0.001110
1.740000	-0.008425
1.741000	-0.016645
1.742000	-0.024537
1.743000	-0.027825
1.744000	-0.003822
1.745000	-0.001849
1.746000	-0.013357
1.747000	0.008015
1.748000	0.016893
1.749000	0.007029
1.750000	0.000453
1.751000	0.000124
1.752000	-0.016645
1.753000	-0.011056
1.754000	-0.009412
1.755000	-0.008096
1.756000	-0.011713
1.757000	-0.008425
1.758000	-0.003822
1.759000	0.007358
1.760000	0.002754
1.761000	-0.002835
1.762000	0.001110
1.763000	0.010975
1.764000	0.015249
1.765000	0.014592
1.766000	0.015249
1.767000	-0.001191
1.768000	-0.002178
1.769000	-0.002178
1.770000	-0.011056
1.771000	-0.026839
1.772000	-0.026510
1.773000	-0.034072
1.774000	-0.021578
1.775000	-0.004151
1.776000	0.012290
1.777000	0.018209
1.778000	0.011303
1.779000	0.014920
1.780000	0.012619
1.781000	0.011303
1.782000	0.015249
1.783000	-0.002835
1.784000	-0.004808
1.785000	-0.005795
1.786000	-0.015659
1.787000	-0.013357
1.788000	-0.006452
1.789000	-0.015659
1.790000	-0.030127
1.791000	-0.006452
1.792000	0.016893
1.793000	0.020181
1.794000	0.009331
1.795000	0.007358
1.796000	0.003412
1.797000	-0.020591
1.798000	-0.041635
1.799000	-0.023879
1.800000	-0.005795
1.801000	0.015249
1.802000	0.021825
1.803000	0.025114
1.804000	0.026100
1.805000	0.037608
1.806000	0.023470
1.807000	0.012290
1.808000	0.004727
1.809000	0.009002
1.810000	0.000782
1.811000	0.022812
1.812000	0.006700
1.813000	0.004070
1.814000	-0.002507
1.815000	-0.008425
1.816000	-0.007110
1.817000	-0.013686
1.818000	-0.013357
1.819000	0.006371
1.820000	0.029059
1.821000	0.026429
1.822000	0.034978
1.823000	0.023798
1.824000	0.020510
1.825000	0.017222
1.826000	0.014592
1.827000	0.004070
1.828000	0.000124
1.829000	0.000453
1.830000	0.001768
1.831000	-0.003493
1.832000	-0.000534
1.833000	-0.009083
1.834000	-0.007768
1.835000	-0.001520
1.836000	0.001768
1.837000	0.008673
1.838000	-0.003164
1.839000	-0.002835
1.840000	0.000453
1.841000	0.007358
1.842000	0.014592
1.843000	0.010317
1.844000	0.010975
1.845000	0.012619
1.846000	0.009659
1.847000	0.003083
1.848000	-0.001191
1.849000	-0.002835
1.850000	-0.003822
1.851000	-0.011056
1.852000	-0.009740
1.853000	-0.004479
1.854000	-0.011056
1.855000	-0.016645
1.856000	-0.017632
1.857000	-0.016645
1.858000	-0.011384
1.859000	-0.016974
1.860000	-0.013029
1.861000	-0.010727
1.862000	-0.008425
1.863000	-0.000863
1.864000	0.011632
1.865000	0.021168
1.866000	0.017222
1.867000	0.007029
1.868000	0.009002
1.869000	0.006700
1.870000	-0.002835
1.871000	-0.024537
1.872000	-0.033415
1.873000	-0.039662
1.874000	-0.028154
1.875000	-0.020591
1.876000	-0.025523
1.877000	-0.030784
1.878000	-0.028154
1.879000	-0.018618
1.880000	-0.005137
1.881000	0.010317
1.882000	0.010975
1.883000	0.010317
1.884000	0.007687
1.885000	-0.003822
1.886000	-0.008425
1.887000	-0.006781
1.888000	-0.008096
1.889000	-0.011384
1.890000	-0.028483
1.891000	-0.027167
1.892000	-0.014344
1.893000	-0.000863
1.894000	-0.000863
1.895000	0.007687
1.896000	0.001110
1.897000	0.001768
1.898000	0.004398
1.899000	-0.011713
1.900000	-0.021249
1.901000	-0.023550
1.902000	-0.016645
1.903000	-0.014344
1.904000	-0.022564
1.905000	-0.005795
1.906000	0.012619
1.907000	0.024456
1.908000	0.019853
1.909000	0.013276
1.910000	0.013605
1.911000	0.004398
1.912000	0.014263
1.913000	0.010317
1.914000	0.000453
1.915000	0.009331
1.916000	0.004727
1.917000	0.004398
1.918000	0.009988
1.919000	0.024127
1.920000	0.019853
1.921000	0.015907
1.922000	0.014592
1.923000	0.010975
1.924000	0.005056
1.925000	0.008673
1.926000	0.006700
1.927000	0.001110
1.928000	-0.010398
1.929000	-0.017961
1.930000	-0.009083
1.931000	-0.002507
1.932000	-0.001849
1.933000	0.008673
1.934000	0.011632
1.935000	0.016564
1.936000	0.015578
1.937000	0.007358
1.938000	-0.002507
1.939000	0.001439
1.940000	0.002754
1.941000	0.010646
1.942000	0.038924
1.943000	0.029059
1.944000	0.016564
1.945000	0.014920
1.946000	0.008344
1.947000	0.002754
1.948000	0.003412
1.949000	0.008344
1.950000	-0.001520
1.951000	0.000124
1.952000	0.002754
1.953000	0.006700
1.954000	0.004727
1.955000	0.004070
1.956000	-0.000205
1.957000	0.008673
1.958000	0.016236
1.959000	0.011961
1.960000	0.015249
1.961000	0.001439
1.962000	0.002426
1.963000	0.004398
1.964000	0.008344
1.965000	0.007358
1.966000	0.002426
1.967000	-0.004808
1.968000	0.003412
1.969000	-0.002507
1.970000	-0.003164
1.971000	-0.015001
1.972000	-0.018947
1.973000	-0.010069
1.974000	-0.008096
1.975000	-0.003822
1.976000	0.002754
1.977000	-0.001520
1.978000	-0.001191
1.979000	-0.000863
1.980000	0.004398
1.981000	0.007358
1.982000	0.013276
1.983000	0.004070
1.984000	0.001439
1.985000	0.001110
1.986000	0.003083
1.987000	0.000453
1.988000	-0.004151
1.989000	-0.006781
1.990000	-0.004479
1.991000	0.001110
1.992000	0.000782
1.993000	-0.006452
1.994000	-0.013686
1.995000	-0.017632
1.996000	0.003412
1.997000	-0.005795
1.998000	-0.013029
1.999000	-0.016317
2.000000	-0.004479
2.001000	-0.002178
2.002000	0.001768
2.003000	0.002097
2.004000	0.004070
2.005000	0.003412
2.006000	-0.006452
2.007000	-0.001191
2.008000	0.004070
2.009000	-0.012042
2.010000	-0.005795
2.011000	-0.002835
2.012000	-0.008096
2.013000	-0.006452
2.014000	-0.002178
2.015000	0.013276
2.016000	0.010646
2.017000	-0.000534
2.018000	0.006371
2.019000	0.008344
2.020000	0.013276
2.021000	0.017880
2.022000	0.008015
2.023000	0.000124
2.024000	0.000453
2.025000	0.001110
2.026000	-0.008096
2.027000	-0.007768
2.028000	-0.005466
2.029000	0.005714
2.030000	0.001768
2.031000	-0.004151
2.032000	0.003412
2.033000	-0.017632
2.034000	-0.014015
2.035000	-0.014015
2.036000	-0.009740
2.037000	-0.005795
2.038000	-0.000205
2.039000	0.019853
2.040000	0.036622
2.041000	0.027086
2.042000	0.009002
2.043000	0.015578
2.044000	-0.013686
2.045000	-0.019605
2.046000	-0.019605
2.047000	-0.006781
2.048000	0.003083
2.049000	0.010646
2.050000	0.024456
2.051000	0.021168
2.052000	0.019853
2.053000	0.034320
2.054000	0.016893
2.055000	0.010975
2.056000	0.003412
2.057000	0.002426
2.058000	0.002097
2.059000	0.000782
2.060000	-0.005795
2.061000	0.002426
2.062000	0.001439
2.063000	0.009331
2.064000	0.019853
2.065000	0.007687
2.066000	0.012948
2.067000	0.008015
2.068000	0.008344
2.069000	0.007358
2.070000	0.007358
2.071000	0.001768
2.072000	-0.011384
2.073000	-0.003493
2.074000	0.005714
2.075000	0.004398
2.076000	0.000782
2.077000	0.003412
2.078000	0.008344
2.079000	0.015578
2.080000	0.016236
2.081000	0.016893
2.082000	0.020181
2.083000	0.016564
2.084000	0.026100
2.085000	0.032676
2.086000	0.015249
2.087000	0.001110
2.088000	-0.006452
2.089000	-0.004479
2.090000	-0.017632
2.091000	-0.004808
2.092000	0.000453
2.093000	0.008673
2.094000	0.004727
2.095000	0.009659
2.096000	0.017551
2.097000	0.011961
2.098000	-0.000863
2.099000	0.001110
2.100000	0.008344
2.101000	-0.003164
2.102000	0.001110
2.103000	0.015578
2.104000	0.003741
2.105000	0.000124
2.106000	0.005056
2.107000	-0.002507
2.108000	0.006700
2.109000	0.011303
2.110000	0.003083
2.111000	0.000782
2.112000	0.010646
2.113000	-0.001191
2.114000	0.006371
2.115000	0.001768
2.116000	-0.005466
2.117000	-0.007768
2.118000	-0.001520
2.119000	0.006371
2.120000	0.013934
2.121000	0.008015
2.122000	0.010646
2.123000	0.018209
2.124000	0.001768
2.125000	0.005385
2.126000	0.002426
2.127000	-0.007110
2.128000	-0.010069
2.129000	-0.009740
2.130000	-0.014344
2.131000	-0.025195
2.132000	-0.024866
2.133000	-0.013686
2.134000	-0.019605
2.135000	-0.015988
2.136000	-0.001520
2.137000	0.010317
2.138000	0.014263
2.139000	0.027744
2.140000	0.028073
2.141000	0.037608
2.142000	0.041883
2.143000	0.025442
2.144000	0.010317
2.145000	0.005385
2.146000	0.003083
2.147000	-0.001849
2.148000	-0.005466
2.149000	-0.006452
2.150000	-0.005466
2.151000	-0.004151
2.152000	-0.009740
2.153000	-0.009083
2.154000	-0.010727
2.155000	-0.013686
2.156000	-0.007110
2.157000	-0.002178
2.158000	0.009331
2.159000	0.014263
2.160000	0.008344
2.161000	0.001110
2.162000	0.002097
2.163000	-0.006452
2.164000	0.005714
2.165000	0.009002
2.166000	-0.000863
2.167000	-0.010398
2.168000	0.001768
2.169000	-0.007110
2.170000	-0.000534
2.171000	-0.004151
2.172000	0.005385
2.173000	0.003412
2.174000	0.003083
2.175000	0.012948
2.176000	0.011961
2.177000	0.010317
2.178000	0.018537
2.179000	0.026100
2.180000	0.037608
2.181000	0.023470
2.182000	0.015249
2.183000	0.002426
2.184000	-0.007439
2.185000	-0.004151
2.186000	-0.007768
2.187000	-0.015659
2.188000	-0.018290
2.189000	-0.013686
2.190000	-0.010727
2.191000	-0.006781
2.192000	-0.007768
2.193000	0.003741
2.194000	0.007029
2.195000	0.009331
2.196000	0.004398
2.197000	0.005385
2.198000	0.016236
2.199000	0.004398
2.200000	-0.000205
2.201000	0.003741
2.202000	-0.003164
2.203000	-0.009740
2.204000	0.003412
2.205000	0.007358
2.206000	0.011961
2.207000	0.003741
2.208000	-0.006781
2.209000	-0.006123
2.210000	-0.013686
2.211000	-0.007439
2.212000	-0.014015
2.213000	-0.002507
2.214000	-0.004808
2.215000	-0.005795
2.216000	-0.006781
2.217000	-0.006781
2.218000	-0.006123
2.219000	-0.003164
2.220000	0.003083
2.221000	0.002097
2.222000	0.008344
2.223000	0.009002
2.224000	0.023470
2.225000	0.012619
2.226000	-0.003822
2.227000	-0.006123
2.228000	-0.014673
2.229000	-0.013357
2.230000	-0.010727
2.231000	-0.004479
2.232000	-0.001191
2.233000	0.007687
2.234000	0.003741
2.235000	-0.000534
2.236000	0.003741
2.237000	0.001768
2.238000	-0.001520
2.239000	-0.005137
2.240000	0.000124
2.241000	0.002754
2.242000	-0.001191
2.243000	-0.001191
2.244000	-0.013357
2.245000	-0.013357
2.246000	-0.011384
2.247000	-0.017961
2.248000	-0.018290
2.249000	-0.015988
2.250000	-0.009412
2.251000	0.003741
2.252000	0.013934
2.253000	-0.000205
2.254000	0.009002
2.255000	-0.001849
2.256000	-0.008425
2.257000	-0.009412
2.258000	-0.014015
2.259000	-0.007768
2.260000	-0.002507
2.261000	-0.007110
2.262000	0.004070
2.263000	0.015907
2.264000	0.006700
2.265000	0.005714
2.266000	0.000782
2.267000	-0.004808
2.268000	0.003741
2.269000	-0.001520
2.270000	-0.013357
2.271000	-0.015659
2.272000	-0.019276
2.273000	-0.017961
2.274000	-0.012700
2.275000	-0.013686
2.276000	-0.003493
2.277000	-0.003822
2.278000	-0.005795
2.279000	-0.002507
2.280000	0.001768
2.281000	0.001768
2.282000	0.005385
2.283000	0.009659
2.284000	0.009659
2.285000	0.026758
2.286000	0.015249
2.287000	-0.002507
2.288000	-0.009412
2.289000	-0.012700
2.290000	-0.011056
2.291000	-0.013029
2.292000	-0.013357
2.293000	-0.024208
2.294000	-0.011056
2.295000	-0.012371
2.296000	-0.006781
2.297000	-0.008096
2.298000	0.003083
2.299000	0.008015
2.300000	0.022154
2.301000	0.027744
2.302000	0.026100
2.303000	0.023470
2.304000	0.006700
2.305000	0.000453
2.306000	-0.004151
2.307000	-0.011056
2.308000	-0.014344
2.309000	-0.017632
2.310000	-0.013686
2.311000	-0.023550
2.312000	-0.013357
2.313000	-0.012700
2.314000	-0.004479
2.315000	0.002097
2.316000	0.004070
2.317000	0.012290
2.318000	0.018537
2.319000	0.031361
2.320000	0.009988
2.321000	0.003741
2.322000	0.000124
2.323000	0.007029
2.324000	0.019853
2.325000	0.009002
2.326000	0.007358
2.327000	0.014592
2.328000	0.017880
2.329000	0.005714
2.330000	-0.005795
2.331000	-0.023222
2.332000	-0.027167
2.333000	-0.013686
2.334000	-0.008425
2.335000	-0.011056
2.336000	-0.009412
2.337000	-0.017303
2.338000	-0.035059
2.339000	-0.029798
2.340000	-0.002507
2.341000	0.005385
2.342000	0.006700
2.343000	0.015249
2.344000	0.014592
2.345000	0.011303
2.346000	0.002754
2.347000	-0.008754
2.348000	-0.013357
2.349000	-0.013029
2.350000	-0.006452
2.351000	0.007358
2.352000	-0.002178
2.353000	-0.020920
2.354000	-0.025523
2.355000	-0.029140
2.356000	-0.017303
2.357000	-0.006452
2.358000	-0.002178
2.359000	0.005385
2.360000	0.010975
2.361000	0.023141
2.362000	0.032019
2.363000	0.039910
2.364000	0.030375
2.365000	0.023470
2.366000	0.021497
2.367000	0.012619
2.368000	0.005714
2.369000	0.002426
2.370000	-0.001191
2.371000	-0.004151
2.372000	-0.009412
2.373000	0.001439
2.374000	0.001110
2.375000	-0.002507
2.376000	0.002097
2.377000	0.006043
2.378000	0.011303
2.379000	0.022154
2.380000	0.014592
2.381000	0.008673
2.382000	0.007358
2.383000	0.002426
2.384000	0.009659
2.385000	-0.001849
2.386000	-0.002178
2.387000	-0.010069
2.388000	-0.011713
2.389000	-0.012371
2.390000	-0.002835
2.391000	0.004727
2.392000	0.002097
2.393000	-0.000534
2.394000	-0.005466
2.395000	0.002426
2.396000	0.005714
2.397000	0.001110
2.398000	-0.001849
2.399000	0.010975
2.400000	0.014920
2.401000	0.010975
2.402000	0.013934
2.403000	0.013934
2.404000	0.009988
2.405000	0.003083
2.406000	-0.012700
2.407000	-0.025852
2.408000	-0.017632
2.409000	-0.013029
2.410000	-0.008425
2.411000	-0.018618
2.412000	-0.009740
2.413000	-0.007110
2.414000	-0.000534
2.415000	0.008344
2.416000	0.008015
2.417000	0.007029
2.418000	0.001110
2.419000	0.013276
2.420000	0.017880
2.421000	0.013934
2.422000	0.012290
2.423000	0.016236
2.424000	0.013934
2.425000	0.015907
2.426000	0.009331
2.427000	0.004070
2.428000	-0.002178
2.429000	-0.006781
2.430000	-0.002178
2.431000	-0.006781
2.432000	-0.011384
2.433000	-0.009740
2.434000	0.005385
2.435000	-0.003822
2.436000	-0.012371
2.437000	-0.011384
2.438000	-0.013686
2.439000	-0.008754
2.440000	0.002426
2.441000	0.013605
2.442000	0.018209
2.443000	0.025114
2.444000	0.030703
2.445000	0.031032
2.446000	0.016564
2.447000	0.008015
2.448000	-0.000863
2.449000	-0.014673
2.450000	-0.015988
2.451000	-0.007768
2.452000	-0.010398
2.453000	-0.014673
2.454000	-0.003493
2.455000	0.015907
2.456000	0.016564
2.457000	0.009331
2.458000	0.014592
2.459000	0.007358
2.460000	0.006700
2.461000	0.012948
2.462000	0.008673
2.463000	0.002426
2.464000	0.000124
2.465000	0.003412
2.466000	-0.011384
2.467000	-0.009083
2.468000	-0.004808
2.469000	0.005056
2.470000	0.000782
2.471000	-0.000205
2.472000	-0.008425
2.473000	-0.019276
2.474000	-0.025852
2.475000	-0.017961
2.476000	-0.007768
2.477000	-0.001849
2.478000	0.009331
2.479000	0.021168
2.480000	0.024127
2.481000	0.020181
2.482000	0.012290
2.483000	0.013605
2.484000	0.015578
2.485000	0.016893
2.486000	0.004727
2.487000	0.004070
2.488000	0.004727
2.489000	0.000782
2.490000	-0.009740
2.491000	-0.020591
2.492000	-0.016974
2.493000	-0.018947
2.494000	-0.031771
2.495000	-0.040649
2.496000	-0.016974
2.497000	-0.007110
2.498000	-0.000534
2.499000	0.020510
2.500000	0.031690
2.501000	0.015578
2.502000	0.015249
2.503000	-0.006123
2.504000	-0.012700
2.505000	-0.009740
2.506000	0.003083
2.507000	-0.000534
2.508000	0.006043
2.509000	0.009988
2.510000	0.013605
2.511000	-0.000534
2.512000	-0.014344
2.513000	-0.015330
2.514000	-0.012042
2.515000	-0.001191
2.516000	0.008344
2.517000	0.015578
2.518000	0.006371
2.519000	0.006043
2.520000	-0.001191
2.521000	0.005714
2.522000	0.016564
2.523000	0.013934
2.524000	0.009988
2.525000	0.003741
2.526000	0.002426
2.527000	-0.004808
2.528000	-0.003164
2.529000	-0.006452
2.530000	-0.008425
2.531000	-0.014344
2.532000	-0.013029
2.533000	-0.010069
2.534000	0.001439
2.535000	0.001110
2.536000	-0.005137
2.537000	-0.000205
2.538000	0.004727
2.539000	0.007029
2.540000	0.009988
2.541000	0.008344
2.542000	0.006043
2.543000	0.008015
2.544000	0.012290
2.545000	0.008344
2.546000	-0.001520
2.547000	-0.003822
2.548000	-0.002178
2.549000	-0.003822
2.550000	0.006043
2.551000	-0.001191
2.552000	-0.007768
2.553000	-0.005795
2.554000	-0.001191
2.555000	-0.016645
2.556000	-0.021906
2.557000	-0.021906
2.558000	-0.019276
2.559000	-0.017303
2.560000	-0.012371
2.561000	-0.004151
2.562000	0.002426
2.563000	0.006043
2.564000	0.017880
2.565000	0.031361
2.566000	0.036293
2.567000	0.023470
2.568000	0.010646
2.569000	0.009331
2.570000	0.007029
2.571000	-0.008096
2.572000	-0.019276
2.573000	-0.025195
2.574000	-0.038676
2.575000	-0.036703
2.576000	-0.013686
2.577000	-0.008096
2.578000	-0.011713
2.579000	-0.008425
2.580000	-0.021249
2.581000	-0.022893
2.582000	-0.015330
2.583000	0.009002
2.584000	0.016893
2.585000	0.014263
2.586000	0.009988
2.587000	0.018537
2.588000	0.021168
2.589000	0.011303
2.590000	0.003083
2.591000	-0.013029
2.592000	-0.012042
2.593000	-0.011056
2.594000	-0.015001
2.595000	-0.013029
2.596000	-0.005137
2.597000	-0.005137
2.598000	-0.013357
2.599000	0.004727
2.600000	0.017222
2.601000	0.015249
2.602000	0.006043
2.603000	0.009002
2.604000	0.005056
2.605000	0.011961
2.606000	0.004727
2.607000	-0.006781
2.608000	-0.009083
2.609000	-0.010069
2.610000	-0.002835
2.611000	-0.011056
2.612000	-0.018618
2.613000	-0.022564
2.614000	-0.013357
2.615000	-0.012700
2.616000	-0.023222
2.617000	-0.015988
2.618000	-0.021249
2.619000	-0.015330
2.620000	-0.001849
2.621000	0.004070
2.622000	0.013276
2.623000	0.009659
2.624000	0.013605
2.625000	0.019524
2.626000	0.024127
2.627000	0.015249
2.628000	0.010646
2.629000	-0.002835
2.630000	-0.013686
2.631000	-0.026181
2.632000	-0.025195
2.633000	-0.029798
2.634000	-0.025523
2.635000	-0.011384
2.636000	-0.014015
2.637000	-0.019934
2.638000	-0.006123
2.639000	0.004398
2.640000	0.008015
2.641000	0.006043
2.642000	0.000782
2.643000	0.016893
2.644000	0.025771
2.645000	0.033663
2.646000	0.029717
2.647000	0.019853
2.648000	0.017222
2.649000	0.005714
2.650000	0.012290
2.651000	0.004070
2.652000	-0.010727
2.653000	-0.035388
2.654000	-0.039005
2.655000	-0.026181
2.656000	-0.018947
2.657000	-0.003822
2.658000	0.010646
2.659000	0.036622
2.660000	0.028730
2.661000	0.030046
2.662000	0.005714
2.663000	-0.018290
2.664000	-0.029469
2.665000	-0.019605
2.666000	0.011303
2.667000	0.037280
2.668000	0.020510
2.669000	0.006371
2.670000	0.005385
2.671000	-0.012042
2.672000	-0.019934
2.673000	-0.022235
2.674000	-0.014344
2.675000	-0.018290
2.676000	-0.002835
2.677000	0.007687
2.678000	0.019524
2.679000	0.006700
2.680000	0.001110
2.681000	-0.003822
2.682000	0.017880
2.683000	0.017551
2.684000	0.017551
2.685000	0.002426
2.686000	-0.003822
2.687000	0.009331
2.688000	0.007358
2.689000	-0.011384
2.690000	-0.032100
2.691000	-0.032428
2.692000	-0.011056
2.693000	0.001439
2.694000	0.011961
2.695000	0.014920
2.696000	0.022812
2.697000	-0.008425
2.698000	-0.010727
2.699000	0.009659
2.700000	-0.001520
2.701000	0.004070
2.702000	0.008015
2.703000	0.015907
2.704000	0.007687
2.705000	-0.005466
2.706000	-0.023879
2.707000	-0.031113
2.708000	-0.024208
2.709000	-0.026181
2.710000	-0.037689
2.711000	-0.024537
2.712000	-0.027825
2.713000	-0.026839
2.714000	-0.020591
2.715000	-0.024208
2.716000	-0.039005
2.717000	-0.099835
2.718000	-0.145539
2.719000	-0.079448
2.720000	0.005714
2.721000	0.077723
2.722000	0.135594
2.723000	0.175380
2.724000	0.203329
2.725000	0.205631
2.726000	0.119811
2.727000	0.040568
2.728000	-0.047225
2.729000	-0.071557
2.730000	-0.063994
2.731000	-0.051171
2.732000	-0.054788
2.733000	-0.073859
2.734000	-0.058733
2.735000	-0.019605
2.736000	0.025114
2.737000	0.047473
2.738000	0.047802
2.739000	0.043198
2.740000	0.022812
2.741000	0.014920
2.742000	0.023141
2.743000	0.007358
2.744000	-0.075831
2.745000	-0.116275
2.746000	-0.105753
2.747000	-0.102465
2.748000	-0.099177
2.749000	-0.089642
2.750000	-0.066296
2.751000	-0.000205
2.752000	0.060296
2.753000	0.099425
2.754000	0.055035
2.755000	0.054378
2.756000	0.064900
2.757000	0.035307
2.758000	0.001439
2.759000	-0.010069
2.760000	-0.017961
2.761000	-0.014673
2.762000	0.004398
2.763000	0.020181
2.764000	0.030046
2.765000	0.012290
2.766000	-0.021249
2.767000	-0.056103
2.768000	-0.156390
2.769000	-0.152773
2.770000	-0.121536
2.771000	-0.080106
2.772000	-0.049527
2.773000	-0.094245
2.774000	-0.047554
2.775000	0.040897
2.776000	0.129676
2.777000	0.151377
2.778000	0.151706
2.779000	0.128689
2.780000	0.125401
2.781000	0.040897
2.782000	-0.048540
2.783000	-0.072543
2.784000	-0.080106
2.785000	-0.110357
2.786000	-0.087997
2.787000	-0.008425
2.788000	0.023798
2.789000	0.005056
2.790000	0.037937
2.791000	-0.000534
2.792000	-0.023222
2.793000	-0.076818
2.794000	-0.073530
2.795000	-0.027825
2.796000	-0.099177
2.797000	-0.125811
2.798000	-0.032428
2.799000	0.105344
2.800000	0.178668
2.801000	0.202672
2.802000	0.208590
2.803000	0.303288
2.804000	0.306576
2.805000	0.235224
2.806000	0.118825
2.807000	0.031690
2.808000	-0.086025
2.809000	-0.165268
2.810000	-0.179078
2.811000	-0.198807
2.812000	-0.200122
2.813000	-0.140936
2.814000	-0.090299
2.815000	-0.002835
2.816000	0.009988
2.817000	-0.051171
2.818000	-0.072215
2.819000	-0.051499
2.820000	-0.110685
2.821000	-0.133373
2.822000	-0.094574
2.823000	0.025114
2.824000	0.028402
2.825000	0.054378
2.826000	0.097781
2.827000	0.077395
2.828000	0.052405
2.829000	0.017880
2.830000	0.032347
2.831000	-0.011056
2.832000	-0.022564
2.833000	0.003412
2.834000	0.012619
2.835000	-0.024537
2.836000	-0.009740
2.837000	0.036622
2.838000	0.071476
2.839000	-0.033086
2.840000	-0.139621
2.841000	-0.206698
2.842000	-0.163953
2.843000	-0.033415
2.844000	0.096794
2.845000	0.048788
2.846000	0.045829
2.847000	0.134279
2.848000	0.197411
2.849000	0.125401
2.850000	0.097123
2.851000	0.031690
2.852000	-0.065310
2.853000	-0.070899
2.854000	-0.087340
2.855000	-0.054130
2.856000	0.019195
2.857000	0.099096
2.858000	0.135923
2.859000	0.171763
2.860000	0.143814
2.861000	0.088903
2.862000	-0.001191
2.863000	-0.063008
2.864000	-0.092930
2.865000	-0.057089
2.866000	-0.132058
2.867000	-0.161980
2.868000	-0.152116
2.869000	-0.048540
2.870000	0.000124
2.871000	-0.048211
2.872000	-0.127784
2.873000	-0.072215
2.874000	-0.015988
2.875000	0.017551
2.876000	-0.074187
2.877000	-0.068926
2.878000	-0.099835
2.879000	0.009002
2.880000	0.020839
2.881000	0.009988
2.882000	-0.003493
2.883000	0.018866
2.884000	0.031032
2.885000	0.024127
2.886000	0.044513
2.887000	0.104686
2.888000	0.100411
2.889000	0.030375
2.890000	0.053063
2.891000	0.048459
2.892000	0.024456
2.893000	0.003741
2.894000	-0.011056
2.895000	-0.009083
2.896000	-0.027825
2.897000	-0.009740
2.898000	0.004398
2.899000	-0.101479
2.900000	-0.088655
2.901000	-0.069255
2.902000	-0.054130
2.903000	0.027086
2.904000	0.137238
2.905000	0.236210
2.906000	0.227661
2.907000	0.087588
2.908000	-0.018947
2.909000	-0.088326
2.910000	-0.058404
2.911000	0.002426
2.912000	-0.008754
2.913000	0.061283
2.914000	0.135923
2.915000	0.092191
2.916000	-0.036703
2.917000	-0.076160
2.918000	-0.086025
2.919000	-0.117591
2.920000	-0.128112
2.921000	-0.084709
2.922000	-0.053801
2.923000	0.007687
2.924000	0.005714
2.925000	0.027415
2.926000	0.008344
2.927000	-0.129757
2.928000	0.001768
2.929000	0.143486
2.930000	0.108303
2.931000	0.098110
2.932000	0.131648
2.933000	0.086930
2.934000	-0.088655
2.935000	-0.224125
2.936000	-0.218207
2.937000	-0.236620
2.938000	-0.117262
2.939000	-0.041635
2.940000	0.080683
2.941000	0.143157
2.942000	0.120469
2.943000	0.015907
2.944000	-0.062021
2.945000	-0.185654
2.946000	-0.249773
2.947000	-0.150143
2.948000	-0.041635
2.949000	-0.081421
2.950000	0.024785
2.951000	-0.009740
2.952000	-0.075174
2.953000	0.098110
2.954000	0.163214
2.955000	0.177682
2.956000	0.160255
2.957000	0.239498
2.958000	0.118496
2.959000	-0.031771
2.960000	0.006700
2.961000	-0.005466
2.962000	-0.144224
2.963000	-0.213275
2.964000	-0.216892
2.965000	-0.116933
2.966000	0.004727
2.967000	0.035964
2.968000	0.087917
2.969000	0.129347
2.970000	0.084300
2.971000	-0.038018
2.972000	-0.019934
2.973000	-0.013686
2.974000	-0.176119
2.975000	-0.300738
2.976000	-0.209986
2.977000	-0.146855
2.978000	-0.023222
2.979000	0.126716
2.980000	0.163872
2.981000	0.124743
2.982000	0.127703
2.983000	0.066873
2.984000	0.069832
2.985000	0.051090
2.986000	0.025114
2.987000	-0.128112
2.988000	-0.211631
2.989000	-0.213603
2.990000	-0.191244
2.991000	-0.015330
2.992000	0.144801
2.993000	0.114221
2.994000	-0.047554
2.995000	-0.027167
2.996000	-0.016645
2.997000	0.012290
2.998000	0.291122
2.999000	0.380558
3.001000	-0.127455
3.002000	-0.221495
3.003000	-0.135346
3.004000	0.085615
3.005000	0.283559
3.006000	0.162885
3.007000	-0.113974
3.008000	-0.305342
3.009000	-0.354992
3.010000	-0.110028
3.011000	0.196095
3.012000	0.347349
3.013000	0.109289
3.014000	0.134937
3.015000	0.076079
3.016000	-0.045581
3.017000	-0.163624
3.018000	-0.220837
3.019000	-0.188614
3.020000	-0.553594
3.021000	-0.375379
3.022000	-0.108713
3.023000	0.116852
3.024000	0.567981
3.025000	0.699177
3.026000	0.422975
3.027000	0.161899
3.028000	-0.290874
3.029000	-0.435551
3.030000	-0.448046
3.031000	-0.437853
3.032000	-0.283311
3.033000	-0.002835
3.034000	0.065229
3.035000	0.102384
3.036000	0.171763
3.037000	0.254624
3.038000	0.282573
3.039000	0.312166
3.040000	0.187875
3.041000	0.018209
3.042000	-0.148170
3.043000	-0.298437
3.044000	-0.246813
3.045000	-0.101479
3.046000	0.178340
3.047000	0.120469
3.048000	-0.063994
3.049000	-0.065967
3.050000	-0.276078
3.051000	-0.223139
3.052000	-0.038676
3.053000	0.208919
3.054000	0.266461
3.055000	0.308220
3.056000	0.226017
3.057000	-0.217220
3.058000	-0.326714
3.059000	-0.389189
3.060000	-0.284955
3.061000	0.019195
3.062000	0.221743
3.063000	0.373325
3.064000	0.454870
3.065000	0.331237
3.066000	0.171763
3.067000	0.187217
3.068000	0.176038
3.069000	0.021168
3.070000	-0.259637
3.071000	-0.423714
3.072000	-0.448046
3.073000	-0.403985
3.074000	-0.047225
3.075000	0.028402
3.076000	0.033663
3.077000	0.145130
3.078000	0.144472
3.079000	0.048130
3.080000	-0.105753
3.081000	-0.120221
3.082000	-0.002835
3.083000	0.074106
3.084000	0.133950
3.085000	0.135265
3.086000	0.020839
3.087000	-0.020591
3.088000	0.026429
3.089000	0.110604
3.090000	0.188533
3.091000	0.143486
3.092000	-0.061693
3.093000	-0.386558
3.094000	-0.368802
3.095000	-0.141594
3.096000	0.146774
3.097000	0.365762
3.098000	0.360172
3.099000	0.321701
3.100000	0.190834
3.101000	0.241143
3.102000	0.173736
3.103000	0.107316
3.104000	-0.026181
3.105000	-0.239908
3.106000	-0.246485
3.107000	-0.247142
3.108000	-0.353348
3.109000	-0.216563
3.110000	0.050103
3.111000	0.368064
3.112000	0.552527
3.113000	0.322030
3.114000	-0.098191
3.115000	-0.139621
3.116000	-0.159350
3.117000	-0.294491
3.118000	-0.302382
3.119000	-0.119563
3.120000	0.176038
3.121000	0.137896
3.122000	-0.034072
3.123000	-0.160007
3.124000	-0.132716
3.125000	-0.053801
3.126000	0.328606
3.127000	0.335511
3.128000	0.219770
3.129000	0.204316
3.130000	0.120140
3.131000	0.020181
3.132000	-0.125811
3.133000	-0.312904
3.134000	-0.298766
3.135000	-0.292847
3.136000	-0.092601
3.137000	0.279613
3.138000	0.350637
3.139000	0.273366
3.140000	0.193794
3.141000	0.129676
3.142000	0.155652
3.143000	-0.081092
3.144000	-0.224454
3.145000	-0.300081
3.146000	-0.305999
3.147000	-0.087997
3.148000	0.241800
3.149000	0.434484
3.150000	0.356555
3.151000	0.077395
3.152000	-0.061035
3.153000	0.034978
3.154000	0.207275
3.155000	0.149075
3.156000	-0.114631
3.157000	-0.424700
3.158000	-0.564445
3.159000	-0.636455
3.160000	-0.284955
3.161000	0.286847
3.162000	0.450266
3.163000	0.277969
3.164000	0.026100
3.165000	-0.184010
3.166000	-0.274762
3.167000	-0.187298
3.168000	-0.072872
3.169000	0.034649
3.170000	0.120469
3.171000	0.145130
3.172000	0.134937
3.173000	0.049117
3.174000	-0.089970
3.175000	-0.050513
3.176000	0.063256
3.177000	0.103699
3.178000	0.086930
3.179000	0.097123
3.180000	0.078710
3.181000	0.027086
3.182000	-0.035717
3.183000	-0.036703
3.184000	0.022483
3.185000	0.131320
3.186000	0.186889
3.187000	0.158940
3.188000	0.033334
3.189000	0.019853
3.190000	0.043856
3.191000	-0.008096
3.192000	0.001110
3.193000	-0.015001
3.194000	0.027086
3.195000	0.010646
3.196000	-0.045252
3.197000	-0.134360
3.198000	-0.229386
3.199000	-0.066954
3.200000	0.245088
3.201000	0.309864
3.202000	0.053063
3.203000	-0.136662
3.204000	-0.206041
3.205000	-0.223468
3.206000	-0.308630
3.207000	-0.077476
3.208000	0.008015
3.209000	-0.096218
3.210000	-0.010069
3.211000	-0.028483
3.212000	0.146116
3.213000	0.252980
3.214000	0.294410
3.215000	0.374311
3.216000	0.336169
3.217000	0.097123
3.218000	-0.064323
3.219000	0.050103
3.220000	0.105672
3.221000	-0.038018
3.222000	-0.138306
3.223000	-0.163624
3.224000	-0.129757
3.225000	0.055364
3.226000	0.116194
3.227000	0.190834
3.228000	0.136581
3.229000	0.104357
3.230000	0.053391
3.231000	-0.166912
3.232000	-0.330003
3.233000	-0.157705
3.234000	-0.241881
3.235000	-0.242868
3.236000	0.169462
3.237000	0.352610
3.238000	0.263502
3.239000	0.192807
3.240000	0.000782
3.241000	-0.184997
3.242000	-0.072215
3.243000	0.072462
3.244000	-0.028154
3.245000	-0.140936
3.246000	-0.210644
3.247000	-0.179078
3.248000	0.011303
3.249000	0.394040
3.250000	0.408507
3.251000	0.310851
3.252000	0.121784
3.253000	-0.175790
3.254000	-0.254047
3.255000	-0.105753
3.256000	-0.055445
3.257000	0.006700
3.258000	0.080025
3.259000	0.165187
3.260000	0.108303
3.261000	0.009988
3.262000	-0.103452
3.263000	-0.112001
3.264000	-0.056432
3.265000	0.031361
3.266000	0.023470
3.267000	-0.031771
3.268000	-0.207027
3.269000	-0.281996
3.270000	-0.027167
3.271000	0.155652
3.272000	0.239170
3.273000	0.116523
3.274000	-0.055116
3.275000	-0.078791
3.276000	-0.030127
3.277000	0.027086
3.278000	0.106001
3.279000	0.154994
3.280000	0.076079
3.281000	0.072134
3.282000	0.082984
3.283000	-0.050184
3.284000	-0.151787
3.285000	-0.458568
3.286000	-0.431605
3.287000	-0.026510
3.288000	0.444677
3.289000	0.729098
3.290000	0.456514
3.291000	-0.211959
3.292000	-0.395107
3.293000	-0.469419
3.294000	-0.333291
3.295000	0.004398
3.296000	0.153021
3.297000	0.314796
3.298000	0.339786
3.299000	0.212207
3.300000	0.137896
3.301000	0.031690
3.302000	0.073120
3.303000	-0.073530
3.304000	-0.314877
3.305000	-0.447059
3.306000	-0.305671
3.307000	-0.057747
3.308000	0.227990
3.309000	0.213851
3.310000	0.323345
3.311000	0.174394
3.312000	0.037937
3.313000	-0.025523
3.314000	-0.163624
3.315000	-0.171844
3.316000	-0.110685
3.317000	-0.108384
3.318000	-0.039005
3.319000	0.008673
3.320000	0.091205
3.321000	0.106659
3.322000	0.025442
3.323000	-0.115618
3.324000	-0.268844
3.325000	-0.174475
3.326000	-0.080435
3.327000	-0.011056
3.328000	0.168475
3.329000	0.168146
3.330000	0.015578
3.331000	0.097123
3.332000	0.105344
3.333000	0.051418
3.334000	-0.076160
3.335000	-0.315206
3.336000	-0.354006
3.337000	-0.313891
3.338000	0.009659
3.339000	0.436785
3.340000	0.396999
3.341000	0.311508
3.342000	0.192807
3.343000	-0.016974
3.344000	-0.089642
3.345000	0.001110
3.346000	0.151706
3.347000	0.163214
3.348000	0.083313
3.349000	-0.116275
3.350000	-0.331318
3.351000	-0.388202
3.352000	-0.198149
3.353000	0.114221
3.354000	0.280600
3.355000	0.380887
3.356000	0.240485
3.357000	0.050103
3.358000	-0.027496
3.359000	-0.202095
3.360000	-0.233332
3.361000	-0.101150
3.362000	-0.164939
3.363000	-0.320138
3.364000	-0.336579
3.365000	-0.311260
3.366000	-0.063008
3.367000	0.060625
3.368000	0.258898
3.369000	0.505507
3.370000	0.573571
3.371000	0.448294
3.372000	0.228319
3.373000	0.061940
3.374000	0.194451
3.375000	0.136909
3.376000	-0.089970
3.377000	-0.287586
3.378000	-0.571350
3.379000	-0.493751
3.380000	-0.107069
3.381000	0.117181
3.382000	0.158611
3.383000	-0.050184
3.384000	-0.185654
3.385000	-0.325728
3.386000	-0.267528
3.387000	0.059968
3.388000	0.323017
3.389000	0.373653
3.390000	0.257583
3.391000	0.039252
3.392000	-0.094903
3.393000	-0.046238
3.394000	0.089561
3.395000	-0.043608
3.396000	-0.091286
3.397000	-0.244512
3.398000	-0.323098
3.399000	0.040897
3.400000	0.124415
3.401000	0.317427
3.402000	0.361159
3.403000	0.257583
3.404000	0.066544
3.405000	0.015578
3.406000	-0.057089
3.407000	-0.174146
3.408000	-0.232017
3.409000	-0.057089
3.410000	0.101069
3.411000	0.059968
3.412000	0.022812
3.413000	-0.028483
3.414000	-0.092601
3.415000	-0.065638
3.416000	0.001439
3.417000	-0.107726
3.418000	-0.103123
3.419000	-0.082408
3.420000	-0.259637
3.421000	-0.043608
3.422000	0.035307
3.423000	0.110604
3.424000	0.087917
3.425000	0.115208
3.426000	0.214838
3.427000	0.239827
3.428000	0.364776
3.429000	0.252651
3.430000	-0.046238
3.431000	-0.289888
3.432000	-0.351047
3.433000	-0.164939
3.434000	0.027415
3.435000	0.079696
3.436000	0.008344
3.437000	-0.085696
3.438000	-0.110685
3.439000	-0.038347
3.440000	-0.044594
3.441000	-0.108384
3.442000	-0.068598
3.443000	-0.117262
3.444000	-0.089970
3.445000	-0.037032
3.446000	0.014592
3.447000	0.157953
3.448000	0.161570
3.449000	0.118167
3.450000	0.048788
3.451000	0.160584
3.452000	0.170777
3.453000	0.189848
3.454000	0.019524
3.455000	-0.228400
3.456000	-0.411877
3.457000	-0.167241
3.458000	-0.068598
3.459000	-0.164282
3.460000	-0.095560
3.461000	0.100740
3.462000	0.260542
3.463000	0.376284
3.464000	0.236539
3.465000	0.057337
3.466000	-0.204397
3.467000	-0.375050
3.468000	-0.230044
3.469000	0.115865
3.470000	0.227990
3.471000	0.268105
3.472000	0.237854
3.473000	0.114221
3.474000	0.026758
3.475000	-0.058733
3.476000	-0.253061
3.477000	-0.191573
3.478000	-0.142909
3.479000	0.024456
3.480000	0.015249
3.481000	-0.172173
3.482000	-0.309945
3.483000	-0.163624
3.484000	0.015578
3.485000	0.140526
3.486000	0.216153
3.487000	-0.013686
3.488000	-0.093587
3.489000	-0.188285
3.490000	-0.094574
3.491000	0.106001
3.492000	0.205302
3.493000	0.345376
3.494000	0.272708
3.495000	0.016893
3.496000	-0.016317
3.497000	-0.049527
3.498000	-0.001191
3.499000	-0.021249
3.500000	-0.052157
3.501000	-0.034730
3.502000	0.015249
3.503000	-0.073859
3.504000	-0.263912
3.505000	-0.274105
3.506000	-0.200780
3.507000	0.099096
3.508000	0.347020
3.509000	0.240814
3.510000	0.088245
3.511000	0.019853
3.512000	-0.045252
3.513000	-0.114302
3.514000	-0.084709
3.515000	-0.097533
3.516000	-0.077476
3.517000	-0.020262
3.518000	-0.101150
3.519000	-0.138634
3.520000	-0.149485
3.521000	-0.041635
3.522000	0.061940
3.523000	0.262515
3.524000	0.374640
3.525000	0.428565
3.526000	0.298356
3.527000	-0.026510
3.528000	-0.311260
3.529000	-0.514795
3.530000	-0.416809
3.531000	-0.158034
3.532000	0.087588
3.533000	0.212207
3.534000	0.138882
3.535000	-0.114960
3.536000	-0.111014
3.537000	0.113893
3.538000	0.482161
3.539000	0.510110
3.540000	0.429223
3.541000	0.283888
3.542000	-0.099177
3.543000	-0.351375
3.544000	-0.484873
3.545000	-0.448703
3.546000	-0.359267
3.547000	-0.119235
3.548000	0.065229
3.549000	0.086930
3.550000	0.003741
3.551000	0.085286
3.552000	0.081340
3.553000	-0.007768
3.554000	-0.063008
3.555000	0.059310
3.556000	0.107316
3.557000	0.094493
3.558000	0.091862
3.559000	-0.078791
3.560000	-0.147184
3.561000	-0.022893
3.562000	-0.073201
3.563000	-0.040977
3.564000	0.102713
3.565000	0.151706
3.566000	-0.055774
3.567000	-0.168885
3.568000	-0.243525
3.569000	-0.141923
3.570000	0.136909
3.571000	0.285532
3.572000	0.373653
3.573000	0.276983
3.574000	0.086601
3.575000	-0.109041
3.576000	-0.181709
3.577000	-0.106411
3.578000	0.069174
3.579000	0.097781
3.580000	0.133950
3.581000	0.082327
3.582000	-0.083394
3.583000	-0.234976
3.584000	-0.312576
3.585000	-0.297121
3.586000	-0.150472
3.587000	0.072791
3.588000	0.063913
3.589000	0.094164
3.590000	0.199055
3.591000	0.264488
3.592000	0.329264
3.593000	0.277969
3.594000	0.134279
3.595000	-0.219851
3.596000	-0.354006
3.597000	-0.471720
3.598000	-0.480927
3.599000	-0.148828
3.600000	0.151377
3.601000	0.154994
3.602000	0.131977
3.603000	0.017222
3.604000	-0.096875
3.605000	-0.061364
3.606000	0.158611
3.607000	0.221085
3.608000	0.145458
3.609000	0.180970
3.610000	-0.061035
3.611000	-0.040320
3.612000	-0.156390
3.613000	-0.343813
3.614000	-0.363870
3.615000	-0.063337
3.616000	0.285532
3.617000	0.546937
3.618000	0.539045
3.619000	0.311179
3.620000	0.097452
3.621000	-0.004151
3.622000	-0.171844
3.623000	-0.200780
3.624000	-0.099506
3.625000	0.059968
3.626000	-0.039662
3.627000	-0.141594
3.628000	-0.172502
3.629000	-0.076489
3.630000	-0.075831
3.631000	-0.019605
3.632000	0.053720
3.633000	0.003083
3.634000	0.000782
3.635000	-0.018290
3.636000	-0.014673
3.637000	0.070490
3.638000	-0.062679
3.639000	-0.166255
3.640000	-0.211959
3.641000	-0.034072
3.642000	0.097781
3.643000	0.188204
3.644000	0.212536
3.645000	0.083971
3.646000	-0.043608
3.647000	0.003083
3.648000	0.015249
3.649000	0.021497
3.650000	0.025442
3.651000	0.011632
3.652000	0.143486
3.653000	0.237854
3.654000	0.240156
3.655000	0.187546
3.656000	0.005385
3.657000	-0.293176
3.658000	-0.401355
3.659000	-0.486846
3.660000	-0.408588
3.661000	-0.169871
3.662000	-0.073530
3.663000	-0.017303
3.664000	0.155652
3.665000	0.298356
3.666000	0.222400
3.667000	0.102055
3.668000	0.027086
3.669000	0.013276
3.670000	-0.005795
3.671000	-0.013029
3.672000	0.044185
3.673000	0.070161
3.674000	0.045171
3.675000	0.033005
3.676000	-0.016974
3.677000	0.106659
3.678000	0.005714
3.679000	-0.105096
3.680000	-0.215247
3.681000	-0.213275
3.682000	-0.066625
3.683000	0.071805
3.684000	0.348006
3.685000	0.423633
3.686000	0.273695
3.687000	-0.002507
3.688000	-0.359924
3.689000	-0.399382
3.690000	-0.218207
3.691000	0.084957
3.692000	0.053391
3.693000	-0.145211
3.694000	-0.288901
3.695000	-0.469747
3.696000	-0.135675
3.697000	0.051090
3.698000	0.281258
3.699000	0.371352
3.700000	0.297698
3.701000	0.234895
3.702000	0.253637
3.703000	0.048788
3.704000	-0.109699
3.705000	-0.106411
3.706000	-0.094903
3.707000	-0.012700
3.708000	-0.012700
3.709000	0.023470
3.710000	-0.040977
3.711000	0.015249
3.712000	0.109289
3.713000	0.249363
3.714000	0.189848
3.715000	0.102713
3.716000	0.101069
3.717000	0.020839
3.718000	-0.087997
3.719000	-0.177434
3.720000	-0.255691
3.721000	-0.084381
3.722000	-0.071228
3.723000	-0.063994
3.724000	0.007029
3.725000	0.008344
3.726000	0.006700
3.727000	0.137896
3.728000	0.137238
3.729000	-0.087669
3.730000	-0.336250
3.731000	-0.442785
3.732000	-0.480927
3.733000	-0.201766
3.734000	0.098438
3.735000	0.330250
3.736000	0.313152
3.737000	0.256268
3.738000	0.188204
3.739000	0.061283
3.740000	-0.007768
3.741000	0.040897
3.742000	0.070161
3.743000	0.082327
3.744000	0.061283
3.745000	0.049774
3.746000	0.005056
3.747000	-0.062350
3.748000	-0.089642
3.749000	-0.102794
3.750000	-0.019276
3.751000	0.033991
3.752000	0.031690
3.753000	-0.030456
3.754000	-0.090957
3.755000	0.022154
3.756000	0.018209
3.757000	0.062927
3.758000	0.014592
3.759000	-0.073530
3.760000	-0.107397
3.761000	-0.045581
3.762000	0.093835
3.763000	0.092849
3.764000	0.082656
3.765000	-0.028154
3.766000	-0.162638
3.767000	-0.201766
3.768000	-0.131072
3.769000	0.118167
3.770000	0.335840
3.771000	0.080683
3.772000	-0.125153
3.773000	-0.282654
3.774000	-0.223139
3.775000	-0.105096
3.776000	0.120469
3.777000	0.282902
3.778000	0.177024
3.779000	0.092191
3.780000	-0.081421
3.781000	-0.143567
3.782000	-0.072872
3.783000	-0.073859
3.784000	0.082327
3.785000	-0.080435
3.786000	0.001439
3.787000	0.151706
3.788000	0.324989
3.789000	0.532140
3.790000	0.497286
3.791000	0.037280
3.792000	-0.331318
3.793000	-0.357294
3.794000	-0.152773
3.795000	-0.253390
3.796000	-0.429961
3.797000	-0.372419
3.798000	-0.197820
3.799000	0.130004
3.800000	0.415741
3.801000	0.309864
3.802000	0.206289
3.803000	0.110604
3.804000	0.062598
3.805000	0.058324
3.806000	-0.028811
3.807000	-0.118906
3.808000	-0.096875
3.809000	-0.221824
3.810000	-0.259966
3.811000	-0.246156
3.812000	-0.230702
3.813000	0.071476
3.814000	0.300000
3.815000	0.370365
3.816000	0.328935
3.817000	0.306576
3.818000	0.173736
3.819000	0.012290
3.820000	-0.089970
3.821000	-0.183353
3.822000	-0.223139
3.823000	-0.106740
3.824000	0.082984
3.825000	0.182614
3.826000	0.155323
3.827000	0.048788
3.828000	-0.132716
3.829000	-0.245827
3.830000	-0.217878
3.831000	-0.186641
3.832000	-0.093587
3.833000	0.007687
3.834000	0.045171
3.835000	0.053391
3.836000	0.023470
3.837000	-0.012700
3.838000	-0.037361
3.839000	-0.083723
3.840000	-0.057418
3.841000	0.043527
3.842000	0.070161
3.843000	0.029717
3.844000	-0.111343
3.845000	-0.222481
3.846000	-0.173817
3.847000	0.144143
3.848000	0.229305
3.849000	0.339128
3.850000	0.122442
3.851000	0.022812
3.852000	-0.016974
3.853000	-0.072215
3.854000	-0.012042
3.855000	0.122442
3.856000	0.218455
3.857000	0.215824
3.858000	0.145130
3.859000	0.105672
3.860000	0.037937
3.861000	-0.188614
3.862000	-0.437853
3.863000	-0.507561
3.864000	-0.350718
3.865000	0.046486
3.866000	0.263502
3.867000	0.404233
3.868000	0.337155
3.869000	0.032676
3.870000	-0.153102
3.871000	-0.121207
3.872000	-0.089970
3.873000	0.001110
3.874000	-0.127455
3.875000	-0.220508
3.876000	-0.246156
3.877000	-0.111014
3.878000	0.227004
3.879000	0.348006
3.880000	0.353267
3.881000	0.223387
3.882000	0.065557
3.883000	0.036622
3.884000	-0.099835
3.885000	-0.268844
3.886000	-0.260295
3.887000	-0.266542
3.888000	-0.218536
3.889000	-0.091614
3.890000	-0.012371
3.891000	0.056679
3.892000	0.125072
3.893000	0.246732
3.894000	0.192478
3.895000	0.121126
3.896000	0.179984
3.897000	0.173407
3.898000	0.102384
3.899000	0.024456
3.900000	-0.013357
3.901000	-0.203081
3.902000	-0.219522
3.903000	-0.179078
3.904000	-0.216234
3.905000	-0.184668
3.906000	-0.008425
3.907000	0.095808
3.908000	0.260871
3.909000	0.252322
3.910000	0.332223
3.911000	0.271064
3.912000	0.006700
3.913000	-0.132387
3.914000	-0.251417
3.915000	-0.410890
3.916000	-0.266871
3.917000	-0.113316
3.918000	-0.033744
3.919000	0.012290
3.920000	-0.071228
3.921000	-0.230373
3.922000	-0.138634
3.923000	0.106001
3.924000	0.287834
3.925000	0.348993
3.926000	0.199055
3.927000	-0.030127
3.928000	-0.031442
3.929000	0.064900
3.930000	0.125730
3.931000	0.141842
3.932000	0.010975
3.933000	-0.148170
3.934000	-0.133373
3.935000	-0.145539
3.936000	-0.000863
3.937000	0.035307
3.938000	0.046815
3.939000	0.015578
3.940000	0.069174
3.941000	0.113893
3.942000	0.141842
3.943000	0.028402
3.944000	-0.124167
3.945000	-0.136333
3.946000	-0.084381
3.947000	-0.063337
3.948000	0.027744
3.949000	-0.011713
3.950000	-0.070242
3.951000	-0.029798
3.952000	-0.124496
3.953000	-0.156719
3.954000	-0.051499
3.955000	0.000782
3.956000	0.069174
3.957000	0.194123
3.958000	0.085615
3.959000	-0.046896
3.960000	-0.127126
3.961000	-0.143567
3.962000	-0.141923
3.963000	-0.012042
3.964000	0.094822
3.965000	0.186889
3.966000	0.128360
3.967000	0.027086
3.968000	0.015578
3.969000	0.030703
3.970000	0.074435
3.971000	0.099425
3.972000	0.228319
3.973000	0.148089
3.974000	0.229634
3.975000	0.157953
3.976000	0.129018
3.977000	-0.019605
3.978000	-0.275749
3.979000	-0.442456
3.980000	-0.455609
3.981000	-0.344799
3.982000	-0.126140
3.983000	-0.009412
3.984000	0.054378
3.985000	0.099425
3.986000	0.105344
3.987000	0.138882
3.988000	0.041554
3.989000	-0.056760
3.990000	-0.053472
3.991000	0.029388
3.992000	0.079696
3.993000	0.146116
3.994000	0.109618
3.995000	0.003083
3.996000	0.002097
3.997000	0.009659
3.998000	0.006371
3.999000	0.013605
4.000000	-0.043608
4.001000	-0.053144
4.002000	-0.029469
4.003000	-0.046567
4.004000	-0.074516
4.005000	-0.029798
4.006000	-0.007439
4.007000	0.120140
4.008000	0.291779
4.009000	0.172750
4.010000	0.028402
4.011000	0.055364
4.012000	0.000782
4.013000	-0.117262
4.014000	-0.181380
4.015000	-0.136333
4.016000	0.000124
4.017000	-0.010069
4.018000	0.080683
4.019000	0.054707
4.020000	-0.055774
4.021000	-0.106082
4.022000	0.023798
4.023000	0.041225
4.024000	0.048130
4.025000	0.100411
4.026000	0.086601
4.027000	-0.147512
4.028000	-0.084381
4.029000	-0.138963
4.030000	-0.020591
4.031000	0.016893
4.032000	0.020181
4.033000	0.055693
4.034000	0.079039
4.035000	0.068517
4.036000	0.082656
4.037000	0.089232
4.038000	0.023798
4.039000	-0.032428
4.040000	0.008015
4.041000	0.108303
4.042000	0.141842
4.043000	0.051090
4.044000	-0.078791
4.045000	-0.223468
4.046000	-0.143238
4.047000	-0.110685
4.048000	-0.114631
4.049000	-0.090299
4.050000	0.030375
4.051000	0.058324
4.052000	0.047473
4.053000	0.058981
4.054000	-0.004151
4.055000	0.056351
4.056000	0.021825
4.057000	0.083313
4.058000	0.057666
4.059000	0.037280
4.060000	0.054378
4.061000	0.047802
4.062000	0.043856
4.063000	-0.042622
4.064000	-0.118577
4.065000	-0.115289
4.066000	-0.172502
4.067000	-0.063994
4.068000	0.241800
4.069000	0.331894
4.070000	0.292766
4.071000	0.088245
4.072000	-0.094245
4.073000	-0.277722
4.074000	-0.521700
4.075000	-0.426673
4.076000	-0.201109
4.077000	0.050761
4.078000	0.253637
4.079000	0.215166
4.080000	0.044185
4.081000	-0.020262
4.082000	0.104357
4.083000	0.159269
4.084000	0.190506
4.085000	0.192150
4.086000	0.101398
4.087000	0.057995
4.088000	-0.055445
4.089000	-0.203081
4.090000	-0.207356
4.091000	-0.228400
4.092000	-0.076160
4.093000	-0.012042
4.094000	-0.006781
4.095000	-0.061364
4.096000	-0.051499
4.097000	0.094493
4.098000	0.168146
4.099000	0.092520
4.100000	-0.017303
4.101000	-0.077147
4.102000	-0.144882
4.103000	0.011961
4.104000	0.018866
4.105000	-0.038347
4.106000	-0.077804
4.107000	-0.081092
4.108000	0.106659
4.109000	0.304932
4.110000	0.335183
4.111000	0.109947
4.112000	-0.064652
4.113000	-0.045581
4.114000	-0.152116
4.115000	-0.209658
4.116000	-0.140936
4.117000	-0.044594
4.118000	0.031690
4.119000	0.112249
4.120000	0.122113
4.121000	-0.023222
4.122000	-0.072215
4.123000	-0.026510
4.124000	-0.106082
4.125000	-0.121536
4.126000	-0.059062
4.127000	0.081340
4.128000	0.147760
4.129000	0.164858
4.130000	0.215495
4.131000	0.170119
4.132000	0.052076
4.133000	-0.049527
4.134000	-0.128770
4.135000	-0.074845
4.136000	0.018537
4.137000	0.081340
4.138000	0.046157
4.139000	-0.181380
4.140000	-0.373734
4.141000	-0.386887
4.142000	-0.250430
4.143000	0.049446
4.144000	0.369379
4.145000	0.472954
4.146000	0.415084
4.147000	0.219112
4.148000	-0.075831
4.149000	-0.188285
4.150000	-0.179736
4.151000	-0.099506
4.152000	0.015249
4.153000	0.024127
4.154000	0.079367
4.155000	0.018209
4.156000	-0.006781
4.157000	0.034978
4.158000	-0.107397
4.159000	-0.117591
4.160000	-0.237607
4.161000	-0.314220
4.162000	-0.170529
4.163000	0.016564
4.164000	0.200370
4.165000	0.290793
4.166000	0.254295
4.167000	0.211878
4.168000	0.060954
4.169000	0.033005
4.170000	-0.144882
4.171000	-0.276406
4.172000	-0.149156
4.173000	0.056679
4.174000	0.185245
4.175000	0.196095
4.176000	0.157624
4.177000	-0.041964
4.178000	-0.146526
4.179000	-0.257006
4.180000	-0.376036
4.181000	-0.416809
4.182000	-0.252732
4.183000	0.028073
4.184000	0.393711
4.185000	0.631441
4.186000	0.389765
4.187000	0.127374
4.188000	0.004727
4.189000	-0.017632
4.190000	-0.062021
4.191000	-0.102136
4.192000	-0.075503
4.193000	-0.021578
4.194000	-0.035059
4.195000	-0.034730
4.196000	-0.151129
4.197000	-0.375707
4.198000	-0.368474
4.199000	0.083313
4.200000	0.321372
4.201000	0.429223
4.202000	0.423962
4.203000	0.122771
4.204000	-0.022235
4.205000	-0.028483
4.206000	-0.008754
4.207000	-0.015001
4.208000	0.046486
4.209000	0.078710
4.210000	-0.061035
4.211000	-0.293176
4.212000	-0.549320
4.213000	-0.340196
4.214000	-0.143238
4.215000	0.170448
4.216000	0.155323
4.217000	-0.008425
4.218000	-0.089642
4.219000	0.036293
4.220000	0.335840
4.221000	0.433826
4.222000	0.322359
4.223000	0.081011
4.224000	0.043856
4.225000	-0.064652
4.226000	-0.200451
4.227000	-0.140278
4.228000	-0.168556
4.229000	-0.125153
4.230000	0.001110
4.231000	0.029717
4.232000	0.026758
4.233000	-0.006452
4.234000	-0.047554
4.235000	-0.028154
4.236000	0.009659
4.237000	0.030046
4.238000	-0.129757
4.239000	-0.173817
4.240000	-0.027167
4.241000	0.049446
4.242000	0.107645
4.243000	0.084300
4.244000	0.023798
4.245000	-0.026181
4.246000	-0.015001
4.247000	0.009002
4.248000	0.028073
4.249000	0.013605
4.250000	0.072462
4.251000	0.093506
4.252000	0.215166
4.253000	0.184587
4.254000	0.094164
4.255000	-0.069584
4.256000	-0.275091
4.257000	-0.325399
4.258000	-0.234647
4.259000	-0.138634
4.260000	-0.001849
4.261000	0.128360
4.262000	0.141842
4.263000	0.111591
4.264000	0.174723
4.265000	0.201685
4.266000	0.164858
4.267000	0.033005
4.268000	-0.058404
4.269000	-0.132058
4.270000	-0.215247
4.271000	-0.239251
4.272000	-0.219522
4.273000	-0.220180
4.274000	0.139869
4.275000	0.392396
4.276000	0.498273
4.277000	0.415412
4.278000	-0.074516
4.279000	-0.410890
4.280000	-0.377351
4.281000	-0.107726
4.282000	0.030375
4.283000	0.160255
4.284000	0.127374
4.285000	-0.089313
4.286000	-0.038347
4.287000	0.067530
4.288000	0.126059
4.289000	0.032676
4.290000	-0.072872
4.291000	-0.098848
4.292000	-0.054130
4.293000	-0.030784
4.294000	-0.040977
4.295000	-0.025195
4.296000	0.013276
4.297000	0.061612
4.298000	0.188533
4.299000	0.205302
4.300000	0.156638
4.301000	0.104686
4.302000	0.021497
4.303000	-0.095560
4.304000	-0.125811
4.305000	-0.228400
4.306000	-0.268515
4.307000	-0.149156
4.308000	-0.092601
4.309000	-0.141923
4.310000	-0.038676
4.311000	0.008015
4.312000	0.129347
4.313000	0.268763
4.314000	0.289478
4.315000	0.081011
4.316000	-0.089642
4.317000	-0.135346
4.318000	-0.213603
4.319000	-0.011713
4.320000	0.139869
4.321000	0.070818
4.322000	-0.075174
4.323000	-0.039333
4.324000	0.003083
4.325000	0.067530
4.326000	0.221743
4.327000	0.205631
4.328000	0.196424
4.329000	0.120798
4.330000	0.057337
4.331000	-0.098191
4.332000	-0.151458
4.333000	-0.113645
4.334000	-0.115289
4.335000	-0.133702
4.336000	-0.063008
4.337000	0.001768
4.338000	0.017222
4.339000	-0.073201
4.340000	-0.199465
4.341000	-0.093587
4.342000	-0.005137
4.343000	0.026100
4.344000	0.130991
4.345000	0.126716
4.346000	0.052076
4.347000	-0.007110
4.348000	-0.133373
4.349000	-0.144224
4.350000	-0.049527
4.351000	0.076408
4.352000	0.181299
4.353000	0.257912
4.354000	0.185902
4.355000	0.136252
4.356000	-0.006123
4.357000	-0.127455
4.358000	-0.196505
4.359000	-0.200451
4.360000	-0.092601
4.361000	0.047802
4.362000	0.176696
4.363000	0.196424
4.364000	0.049774
4.365000	0.057666
4.366000	-0.058076
4.367000	-0.094903
4.368000	-0.156061
4.369000	-0.159021
4.370000	-0.194861
4.371000	-0.106411
4.372000	0.135594
4.373000	0.172750
4.374000	-0.108055
4.375000	-0.212617
4.376000	-0.315206
4.377000	-0.254705
4.378000	-0.168227
4.379000	-0.010069
4.380000	0.193465
4.381000	0.443033
4.382000	0.554500
4.383000	0.454212
4.384000	0.202672
4.385000	0.034649
4.386000	0.005056
4.387000	-0.032757
4.388000	-0.077804
4.389000	-0.098519
4.390000	-0.113645
4.391000	-0.102794
4.392000	-0.029798
4.393000	0.087588
4.394000	0.198397
4.395000	0.218126
4.396000	0.112906
4.397000	-0.224454
4.398000	-0.351375
4.399000	-0.405629
4.400000	-0.244183
4.401000	-0.008754
4.402000	0.074435
4.403000	0.149404
4.404000	0.121126
4.405000	0.015249
4.406000	-0.034401
4.407000	-0.061693
4.408000	-0.065967
4.409000	0.053063
4.410000	0.033663
4.411000	-0.006452
4.412000	-0.024866
4.413000	0.024456
4.414000	0.073778
4.415000	0.054707
4.416000	0.040239
4.417000	0.001439
4.418000	-0.010398
4.419000	-0.125811
4.420000	-0.232674
4.421000	-0.287586
4.422000	-0.152445
4.423000	0.106330
4.424000	0.292108
4.425000	0.417714
4.426000	0.259556
4.427000	0.068845
4.428000	-0.045252
4.429000	-0.090299
4.430000	-0.097533
4.431000	-0.121207
4.432000	-0.069584
4.433000	-0.056432
4.434000	0.026429
4.435000	-0.088326
4.436000	-0.181709
4.437000	-0.184339
4.438000	-0.082079
4.439000	0.139540
4.440000	0.365104
4.441000	0.355569
4.442000	0.110933
4.443000	-0.227085
4.444000	-0.384256
4.445000	-0.265884
4.446000	-0.019276
4.447000	0.121784
4.448000	0.254953
4.449000	0.168475
4.450000	0.078052
4.451000	0.036293
4.452000	-0.021249
4.453000	0.064242
4.454000	0.012948
4.455000	0.115208
4.456000	0.038924
4.457000	-0.019605
4.458000	-0.022235
4.459000	-0.109041
4.460000	-0.158363
4.461000	-0.087340
4.462000	0.067201
4.463000	0.141184
4.464000	0.164201
4.465000	0.023470
4.466000	-0.171187
4.467000	-0.249115
4.468000	-0.155733
4.469000	-0.048540
4.470000	0.039252
4.471000	0.062269
4.472000	0.056022
4.473000	0.047144
4.474000	0.036951
4.475000	0.024456
4.476000	-0.032757
4.477000	-0.065967
4.478000	-0.184997
4.479000	-0.193546
4.480000	-0.073201
4.481000	0.023470
4.482000	0.176038
4.483000	0.268434
4.484000	0.346691
4.485000	0.287176
4.486000	0.202343
4.487000	0.105015
4.488000	-0.090299
4.489000	-0.238922
4.490000	-0.229386
4.491000	-0.269501
4.492000	-0.283969
4.493000	-0.169543
4.494000	0.022812
4.495000	0.161241
4.496000	0.270078
4.497000	0.273366
4.498000	0.165516
4.499000	0.052076
4.500000	-0.129099
4.501000	-0.306986
4.502000	-0.354663
4.503000	-0.214590
4.504000	-0.054459
4.505000	0.070818
4.506000	0.094164
4.507000	0.099096
4.508000	-0.002178
4.509000	-0.027825
4.510000	-0.046567
4.511000	0.032676
4.512000	0.330579
4.513000	0.202343
4.514000	0.097123
4.515000	0.017222
4.516000	0.000453
4.517000	-0.089313
4.518000	-0.090957
4.519000	-0.111343
4.520000	-0.170858
4.521000	-0.118906
4.522000	-0.133045
4.523000	-0.085367
4.524000	-0.007439
4.525000	0.090547
4.526000	0.122442
4.527000	0.277312
4.528000	0.301644
4.529000	0.208919
4.530000	0.069832
4.531000	-0.079120
4.532000	-0.133702
4.533000	-0.105424
4.534000	-0.013029
4.535000	-0.006452
4.536000	-0.062679
4.537000	-0.068926
4.538000	-0.067611
4.539000	0.039252
4.540000	0.188862
4.541000	0.192478
4.542000	0.087917
4.543000	-0.075831
4.544000	-0.161980
4.545000	-0.119235
4.546000	-0.055774
4.547000	-0.029140
4.548000	-0.209000
4.549000	-0.250430
4.550000	-0.505588
4.551000	-0.370118
4.552000	-0.117591
4.553000	0.077395
4.554000	0.449609
4.555000	0.593299
4.556000	0.470982
4.557000	0.323017
4.558000	0.252651
4.559000	-0.001849
4.560000	-0.191573
4.561000	-0.220837
4.562000	-0.223139
4.563000	-0.118906
4.564000	-0.146197
4.565000	-0.257664
4.566000	-0.158363
4.567000	-0.036045
4.568000	0.098438
4.569000	0.207933
4.570000	0.127374
4.571000	0.040568
4.572000	0.052405
4.573000	0.074435
4.574000	0.054707
4.575000	0.108632
4.576000	0.030046
4.577000	0.048459
4.578000	-0.030456
4.579000	-0.052486
4.580000	-0.074187
4.581000	-0.079120
4.582000	-0.028154
4.583000	0.009331
4.584000	0.043527
4.585000	0.035636
4.586000	0.012948
4.587000	0.010317
4.588000	-0.016974
4.589000	-0.015659
4.590000	0.006700
4.591000	0.025771
4.592000	0.042212
4.593000	0.017222
4.594000	-0.020591
4.595000	-0.053472
4.596000	-0.057747
4.597000	-0.031442
4.598000	-0.018290
4.599000	0.003083
4.600000	0.033991
4.601000	0.017880
4.602000	0.015578
4.603000	0.021497
4.604000	0.012619
4.605000	-0.001520
4.606000	0.009331
4.607000	0.007029
4.608000	0.004727
4.609000	0.003083
4.610000	0.001110
4.611000	-0.007439
4.612000	0.003741
4.613000	-0.004151
4.614000	-0.004479
4.615000	-0.007768
4.616000	-0.004151
4.617000	-0.005137
4.618000	-0.001849
4.619000	-0.007768
4.620000	0.002097
4.621000	0.005714
4.622000	0.007358
4.623000	0.002097
4.624000	0.012290
4.625000	0.005714
4.626000	0.008015
4.627000	0.008015
4.628000	0.004727
4.629000	-0.000863
4.630000	-0.004151
4.631000	-0.000863
4.632000	-0.002835
4.633000	-0.009412
4.634000	-0.006781
4.635000	-0.007768
4.636000	-0.007110
4.637000	0.002097
4.638000	0.001768
4.639000	0.004070
4.640000	0.002426
4.641000	0.006043
4.642000	0.011303
4.643000	0.011303
4.644000	0.010975
4.645000	0.002426
4.646000	0.007029
4.647000	0.007029
4.648000	0.006043
4.649000	0.001439
4.650000	-0.004808
4.651000	-0.013029
4.652000	-0.007768
4.653000	-0.004151
4.654000	-0.009083
4.655000	-0.012371
4.656000	-0.007768
4.657000	-0.005466
4.658000	0.000782
4.659000	0.005714
4.660000	0.001768
4.661000	0.008015
4.662000	0.002097
4.663000	0.011303
4.664000	0.005056
4.665000	0.003741
4.666000	0.002754
4.667000	0.002754
4.668000	0.004727
4.669000	-0.000863
4.670000	0.004070
4.671000	-0.001849
4.672000	-0.010398
4.673000	-0.006781
4.674000	-0.002835
4.675000	-0.007110
4.676000	0.003741
4.677000	-0.005137
4.678000	-0.000534
4.679000	0.007687
4.680000	0.006043
4.681000	0.003412
4.682000	0.005385
4.683000	0.009002
4.684000	0.008015
4.685000	0.002426
4.686000	0.006700
4.687000	0.007029
4.688000	-0.001849
4.689000	-0.006781
4.690000	-0.008425
4.691000	-0.006123
4.692000	-0.007110
4.693000	-0.011384
4.694000	-0.015330
4.695000	-0.006452
4.696000	-0.013029
4.697000	-0.006452
4.698000	-0.003164
4.699000	-0.003493
4.700000	-0.014015
4.701000	-0.007768
4.702000	-0.014344
4.703000	-0.003822
4.704000	-0.001849
4.705000	0.002754
4.706000	0.007029
4.707000	0.021825
4.708000	0.018866
4.709000	-0.001191
4.710000	-0.020591
4.711000	-0.018290
4.712000	-0.009083
4.713000	-0.026181
4.714000	-0.015988
4.715000	-0.019276
4.716000	-0.005795
4.717000	-0.011384
4.718000	-0.012371
4.719000	-0.036374
4.720000	-0.059720
4.721000	-0.065310
4.722000	-0.078791
4.723000	-0.073859
4.724000	-0.062679
4.725000	-0.055774
4.726000	-0.059720
4.727000	-0.061364
4.728000	-0.056760
4.729000	-0.044594
4.730000	-0.044266
4.731000	-0.042950
4.732000	-0.041635
4.733000	-0.036703
4.734000	-0.035717
4.735000	-0.020262
4.736000	-0.019934
4.737000	-0.022564
4.738000	-0.020262
4.739000	-0.020262
4.740000	-0.015001
4.741000	-0.001849
4.742000	-0.004808
4.743000	-0.007768
4.744000	0.008015
4.745000	0.005385
4.746000	0.008015
4.747000	0.014920
4.748000	0.010975
4.749000	0.003412
4.750000	0.017880
4.751000	0.009002
4.752000	0.006371
4.753000	0.007358
4.754000	0.014263
4.755000	0.010646
4.756000	0.012290
4.757000	0.025114
4.758000	0.025771
4.759000	0.029717
4.760000	0.035307
4.761000	0.034978
4.762000	0.042541
4.763000	0.037937
4.764000	0.049774
4.765000	0.038266
4.766000	0.028402
4.767000	0.028402
4.768000	0.035964
4.769000	0.039910
4.770000	0.054378
4.771000	0.054378
4.772000	0.042212
4.773000	0.039581
4.774000	0.034978
4.775000	0.037608
4.776000	0.039252
4.777000	0.037608
4.778000	0.055035
4.779000	0.076079
4.780000	0.077395
4.781000	0.067201
4.782000	0.077723
4.783000	0.083971
4.784000	0.103699
4.785000	0.101398
4.786000	0.100411
4.787000	0.100411
4.788000	0.100083
4.789000	0.108632
4.790000	0.110933
4.791000	0.101069
4.792000	0.109947
4.793000	0.098438
4.794000	0.099096
4.795000	0.101069
4.796000	0.102713
4.797000	0.112906
4.798000	0.091205
4.799000	0.084300
4.800000	0.095808
4.801000	0.098767
4.802000	0.086930
4.803000	0.063584
4.804000	0.045500
4.805000	0.036622
4.806000	0.027744
4.807000	0.035307
4.808000	0.026429
4.809000	0.013276
4.810000	-0.001849
4.811000	-0.017961
4.812000	-0.028483
4.813000	-0.029469
4.814000	-0.043608
4.815000	-0.049855
4.816000	-0.052815
4.817000	-0.054459
4.818000	-0.056760
4.819000	-0.060377
4.820000	-0.068269
4.821000	-0.058404
4.822000	-0.044266
4.823000	-0.053144
4.824000	-0.042293
4.825000	-0.058076
4.826000	-0.063665
4.827000	-0.073859
4.828000	-0.054788
4.829000	-0.061693
4.830000	-0.055774
4.831000	-0.067282
4.832000	-0.043279
4.833000	-0.076818
4.834000	-0.089970
4.835000	-0.062350
4.836000	-0.047225
4.837000	-0.033744
4.838000	-0.036045
4.839000	-0.021249
4.840000	-0.006123
4.841000	-0.009412
4.842000	-0.004479
4.843000	0.003741
4.844000	0.008673
4.845000	0.042212
4.846000	0.053063
4.847000	0.064242
4.848000	-0.014015
4.849000	-0.060049
4.850000	-0.081092
4.851000	-0.096218
4.852000	-0.085696
4.853000	-0.093258
4.854000	-0.082737
4.855000	-0.074516
4.856000	-0.053144
4.857000	-0.018290
4.858000	-0.028483
4.859000	-0.025523
4.860000	-0.023222
4.861000	-0.023879
4.862000	-0.001520
4.863000	-0.003493
4.864000	-0.009083
4.865000	-0.003493
4.866000	-0.010727
4.867000	-0.009412
4.868000	0.008015
4.869000	-0.004808
4.870000	-0.002507
4.871000	-0.005466
4.872000	-0.000863
4.873000	-0.004808
4.874000	-0.005137
4.875000	-0.015330
4.876000	-0.020262
4.877000	-0.017961
4.878000	-0.010069
4.879000	-0.004479
4.880000	-0.019605
4.881000	-0.033086
4.882000	-0.004808
4.883000	-0.006452
4.884000	-0.026181
4.885000	-0.014673
4.886000	-0.023222
4.887000	-0.006452
4.888000	-0.003822
4.889000	0.017551
4.890000	0.015907
4.891000	0.006371
4.892000	0.006700
4.893000	0.006371
4.894000	0.007358
4.895000	0.009988
4.896000	0.022154
4.897000	0.014920
4.898000	0.012948
4.899000	0.025771
4.900000	0.034649
4.901000	0.024456
4.902000	0.030046
4.903000	0.021168
4.904000	0.017551
4.905000	0.018209
4.906000	0.016236
4.907000	0.006043
4.908000	-0.003822
4.909000	0.002097
4.910000	0.008015
4.911000	0.001439
4.912000	-0.008425
4.913000	0.007358
4.914000	-0.013357
4.915000	-0.010727
4.916000	-0.004479
4.917000	0.001439
4.918000	0.000782
4.919000	0.002754
4.920000	0.007687
4.921000	0.012948
4.922000	0.019524
4.923000	0.010975
4.924000	0.012619
4.925000	0.006700
4.926000	0.011303
4.927000	0.005056
4.928000	0.010975
4.929000	0.003412
4.930000	-0.007768
4.931000	-0.003164
4.932000	-0.006123
4.933000	-0.001191
4.934000	0.002426
4.935000	-0.008754
4.936000	-0.005795
4.937000	-0.004151
4.938000	0.006700
4.939000	-0.000205
4.940000	0.002754
4.941000	0.003083
4.942000	0.011961
4.943000	0.007358
4.944000	0.006700
4.945000	0.014263
4.946000	0.002754
4.947000	0.004727
4.948000	0.010646
4.949000	0.012290
4.950000	0.007687
4.951000	0.011961
4.952000	0.000782
4.953000	0.007029
4.954000	-0.008096
4.955000	-0.001520
4.956000	-0.000863
4.957000	-0.005795
4.958000	-0.004479
4.959000	0.000782
4.960000	-0.010069
4.961000	-0.013029
4.962000	-0.005466
4.963000	-0.003164
4.964000	0.007687
4.965000	0.006043
4.966000	0.015249
4.967000	0.017880
4.968000	0.011632
4.969000	-0.018947
4.970000	-0.016645
4.971000	-0.010727
4.972000	-0.003164
4.973000	0.005056
4.974000	0.008015
4.975000	0.016236
4.976000	0.015249
4.977000	0.010975
4.978000	0.007029
4.979000	0.000453
4.980000	-0.002507
4.981000	-0.003493
4.982000	0.010646
4.983000	0.020510
4.984000	0.008015
4.985000	0.023141
4.986000	0.013605
4.987000	0.014263
4.988000	0.010646
4.989000	-0.019276
4.990000	-0.027825
4.991000	-0.038676
4.992000	-0.038676
4.993000	-0.028483
4.994000	-0.013686
4.995000	0.002097
4.996000	0.013934
4.997000	0.035307
4.998000	0.054707
4.999000	0.071147
5.000000	0.068188
5.001000	0.030046
5.002000	0.016564
5.003000	0.016236
5.004000	0.024785
5.005000	0.017222
5.006000	0.004070
5.007000	-0.001849
5.008000	0.014592
5.009000	0.005385
5.010000	-0.005137
5.011000	-0.011384
5.012000	-0.003164
5.013000	-0.004808
5.014000	-0.006781
5.015000	0.000124
5.016000	0.016564
5.017000	0.012290
5.018000	0.002426
5.019000	0.000124
5.020000	0.004398
5.021000	0.012619
5.022000	0.005385
5.023000	0.018209
5.024000	0.010646
5.025000	0.016236
5.026000	0.006043
5.027000	0.001439
5.028000	-0.021906
5.029000	-0.031771
5.030000	-0.038676
5.031000	-0.041306
5.032000	-0.035717
5.033000	-0.016645
5.034000	-0.012042
5.035000	0.007358
5.036000	0.007687
5.037000	0.024127
5.038000	0.050103
5.039000	0.060296
5.040000	0.055693
5.041000	0.029717
5.042000	0.006371
5.043000	0.012948
5.044000	0.009659
5.045000	0.000453
5.046000	0.004070
5.047000	-0.000534
5.048000	-0.003164
5.049000	0.003083
5.050000	0.004070
5.051000	-0.013686
5.052000	-0.022235
5.053000	-0.027825
5.054000	-0.026181
5.055000	-0.029140
5.056000	-0.013357
5.057000	-0.011713
5.058000	-0.009083
5.059000	0.007358
5.060000	0.003412
5.061000	-0.002178
5.062000	-0.010398
5.063000	-0.014015
5.064000	-0.031771
5.065000	-0.036703
5.066000	-0.027825
5.067000	-0.019276
5.068000	-0.004479
5.069000	0.021168
5.070000	0.028402
5.071000	0.029388
5.072000	0.031361
5.073000	0.017880
5.074000	0.022154
5.075000	0.019524
5.076000	0.003741
5.077000	-0.004479
5.078000	-0.006781
5.079000	-0.020591
5.080000	-0.017961
5.081000	-0.013686
5.082000	-0.001520
5.083000	-0.000205
5.084000	0.001439
5.085000	-0.001520
5.086000	-0.002835
5.087000	-0.000205
5.088000	-0.012042
5.089000	-0.012371
5.090000	-0.009412
5.091000	-0.014015
5.092000	-0.011713
5.093000	-0.014015
5.094000	-0.014344
5.095000	-0.019605
5.096000	-0.018618
5.097000	-0.016317
5.098000	-0.009083
5.099000	-0.005137
5.100000	-0.004151
5.101000	-0.003493
5.102000	-0.005466
5.103000	0.002754
5.104000	0.008344
5.105000	0.003412
5.106000	-0.001191
5.107000	-0.002507
5.108000	-0.004151
5.109000	-0.003822
5.110000	-0.002178
5.111000	-0.006123
5.112000	-0.020262
5.113000	-0.014673
5.114000	-0.011384
5.115000	-0.009083
5.116000	-0.004808
5.117000	-0.006781
5.118000	-0.001849
5.119000	-0.001849
5.120000	-0.002178
5.121000	-0.001191
5.122000	-0.000205
5.123000	-0.000534
5.124000	0.006700
5.125000	0.001110
5.126000	0.000782
5.127000	-0.001849
5.128000	-0.002507
5.129000	-0.003164
5.130000	-0.002178
5.131000	-0.007110
5.132000	-0.009083
5.133000	-0.015001
5.134000	-0.012700
5.135000	-0.015330
5.136000	-0.009412
5.137000	-0.010727
5.138000	0.003741
5.139000	-0.005466
5.140000	0.004398
5.141000	-0.000205
5.142000	0.011632
5.143000	0.014920
5.144000	0.012948
5.145000	0.004398
5.146000	-0.000205
5.147000	0.006700
5.148000	-0.008425
5.149000	-0.017632
5.150000	-0.022893
5.151000	-0.025523
5.152000	-0.050184
5.153000	-0.045581
5.154000	-0.033744
5.155000	-0.009740
5.156000	0.016893
5.157000	0.025442
5.158000	0.027086
5.159000	0.028730
5.160000	0.042212
5.161000	0.039581
5.162000	0.028730
5.163000	0.012619
5.164000	0.007687
5.165000	0.002426
5.166000	-0.002178
5.167000	-0.010069
5.168000	-0.009740
5.169000	0.009988
5.170000	0.010317
5.171000	0.003741
5.172000	0.011632
5.173000	0.006043
5.174000	0.014920
5.175000	0.019524
5.176000	0.016893
5.177000	0.017880
5.178000	0.020181
5.179000	0.011632
5.180000	-0.001191
5.181000	0.001439
5.182000	-0.008425
5.183000	0.009988
5.184000	0.016564
5.185000	0.023798
5.186000	0.028730
5.187000	0.017551
5.188000	0.012948
5.189000	0.006700
5.190000	-0.003164
5.191000	-0.004808
5.192000	-0.011713
5.193000	-0.005137
5.194000	-0.014015
5.195000	-0.016974
5.196000	-0.004808
5.197000	0.007029
5.198000	0.012948
5.199000	0.010646
5.200000	0.015578
5.201000	0.014263
5.202000	0.020181
5.203000	0.018537
5.204000	0.020510
5.205000	0.023141
5.206000	0.014263
5.207000	0.016236
5.208000	0.019853
5.209000	0.013276
5.210000	0.013276
5.211000	0.004070
5.212000	0.008344
5.213000	0.005056
5.214000	0.005714
5.215000	0.003741
5.216000	0.001768
5.217000	0.010317
5.218000	0.008673
5.219000	0.017880
5.220000	0.018209
5.221000	0.014263
5.222000	0.009331
5.223000	0.013605
5.224000	0.014592
5.225000	0.011303
5.226000	0.011632
5.227000	0.011303
5.228000	-0.001191
5.229000	0.002097
5.230000	0.002426
5.231000	0.001110
5.232000	-0.006781
5.233000	0.001110
5.234000	-0.013029
5.235000	-0.005137
5.236000	-0.002178
5.237000	0.003083
5.238000	-0.000534
5.239000	0.006043
5.240000	-0.001849
5.241000	0.001439
5.242000	0.008344
5.243000	0.008015
5.244000	0.012619
5.245000	0.008015
5.246000	0.007358
5.247000	0.015578
5.248000	0.004398
5.249000	-0.001849
5.250000	-0.004151
5.251000	0.007029
5.252000	0.002426
5.253000	0.002754
5.254000	0.002097
5.255000	-0.005137
5.256000	0.000453
5.257000	0.004070
5.258000	0.001110
5.259000	0.001110
5.260000	-0.002835
5.261000	0.007029
5.262000	0.005385
5.263000	-0.005795
5.264000	0.007358
5.265000	0.012619
5.266000	-0.004479
5.267000	-0.004808
5.268000	0.002754
5.269000	0.003083
5.270000	-0.003822
5.271000	-0.006123
5.272000	-0.015330
5.273000	-0.007439
5.274000	0.003412
5.275000	0.001439
5.276000	-0.001849
5.277000	0.007687
5.278000	0.002097
5.279000	0.010317
5.280000	0.005714
5.281000	0.007687
5.282000	0.007358
5.283000	0.008015
5.284000	0.006700
5.285000	-0.002835
5.286000	-0.015001
5.287000	-0.015330
5.288000	-0.021578
5.289000	-0.019934
5.290000	-0.013029
5.291000	-0.005466
5.292000	-0.002178
5.293000	0.007687
5.294000	0.024456
5.295000	0.020510
5.296000	0.008344
5.297000	-0.003164
5.298000	-0.016974
5.299000	-0.019934
5.300000	-0.033086
5.301000	-0.018618
5.302000	-0.005795
5.303000	-0.009083
5.304000	0.003083
5.305000	0.006700
5.306000	0.009659
5.307000	0.020510
5.308000	0.010646
5.309000	0.012948
5.310000	0.007029
5.311000	0.009002
5.312000	-0.000205
5.313000	-0.002178
5.314000	-0.006781
5.315000	-0.007110
5.316000	-0.006781
5.317000	-0.002507
5.318000	-0.000205
5.319000	-0.013029
5.320000	-0.007439
5.321000	0.010975
5.322000	0.008015
5.323000	0.008673
5.324000	0.014920
5.325000	0.008673
5.326000	0.008015
5.327000	0.012619
5.328000	0.007358
5.329000	-0.003822
5.330000	-0.001191
5.331000	-0.003822
5.332000	-0.012042
5.333000	-0.020920
5.334000	-0.003164
5.335000	-0.009740
5.336000	0.006371
5.337000	-0.005795
5.338000	-0.008754
5.339000	-0.005466
5.340000	0.004398
5.341000	0.000453
5.342000	0.003741
5.343000	0.001768
5.344000	-0.004479
5.345000	0.009659
5.346000	-0.016317
5.347000	-0.015001
5.348000	-0.000205
5.349000	0.013605
5.350000	0.017880
5.351000	0.024456
5.352000	0.020181
5.353000	0.026100
5.354000	0.007687
5.355000	0.002097
5.356000	-0.008754
5.357000	-0.006781
5.358000	-0.006123
5.359000	-0.001520
5.360000	0.005385
5.361000	0.017551
5.362000	0.009988
5.363000	0.004727
5.364000	0.007358
5.365000	0.014920
5.366000	0.017551
5.367000	0.027086
5.368000	0.022483
5.369000	0.009988
5.370000	0.012290
5.371000	0.010646
5.372000	0.019195
5.373000	0.006700
5.374000	-0.016317
5.375000	-0.016645
5.376000	-0.004151
5.377000	0.017222
5.378000	0.016236
5.379000	0.001768
5.380000	-0.005795
5.381000	-0.009083
5.382000	-0.011056
5.383000	-0.009083
5.384000	0.000453
5.385000	-0.004151
5.386000	-0.013686
5.387000	-0.012700
5.388000	-0.008754
5.389000	0.007358
5.390000	0.006371
5.391000	-0.006123
5.392000	-0.001520
5.393000	0.012619
5.394000	0.014920
5.395000	0.017880
5.396000	0.012290
5.397000	-0.005466
5.398000	-0.008754
5.399000	-0.008754
5.400000	-0.001191
5.401000	0.000782
5.402000	-0.005466
5.403000	-0.004808
5.404000	0.001110
5.405000	0.014920
5.406000	0.012619
5.407000	0.005056
5.408000	-0.009083
5.409000	-0.008754
5.410000	-0.011384
5.411000	-0.007768
5.412000	-0.002835
5.413000	-0.011384
5.414000	-0.009083
5.415000	-0.004151
5.416000	-0.012042
5.417000	-0.007768
5.418000	-0.002178
5.419000	-0.009740
5.420000	0.000453
5.421000	0.004727
5.422000	0.001439
5.423000	0.006700
5.424000	0.002426
5.425000	0.001110
5.426000	0.003412
5.427000	0.004727
5.428000	0.006371
5.429000	0.003083
5.430000	-0.010398
5.431000	-0.009083
5.432000	-0.009412
5.433000	0.000124
5.434000	-0.006123
5.435000	-0.012371
5.436000	-0.008096
5.437000	-0.005137
5.438000	-0.005795
5.439000	0.010646
5.440000	0.004070
5.441000	0.005385
5.442000	0.002754
5.443000	0.014592
5.444000	0.011303
5.445000	0.009988
5.446000	0.003741
5.447000	0.010317
5.448000	0.002097
5.449000	-0.000205
5.450000	0.002754
5.451000	-0.003164
5.452000	-0.002507
5.453000	-0.008425
5.454000	-0.003822
5.455000	-0.002835
5.456000	-0.000534
5.457000	-0.002835
5.458000	-0.001191
5.459000	-0.008096
5.460000	0.001768
5.461000	0.004398
5.462000	0.003083
5.463000	0.008673
5.464000	0.003083
5.465000	0.017222
5.466000	0.016236
5.467000	0.017880
5.468000	0.013605
5.469000	0.010646
5.470000	0.006043
5.471000	0.011303
5.472000	0.010317
5.473000	0.003083
5.474000	-0.010398
5.475000	-0.014015
5.476000	-0.011384
5.477000	0.000453
5.478000	0.005056
5.479000	0.002097
5.480000	0.004398
5.481000	0.013605
5.482000	0.011961
5.483000	0.019853
5.484000	0.013276
5.485000	0.009331
5.486000	0.009002
5.487000	0.006371
5.488000	0.013276
5.489000	0.002754
5.490000	-0.003822
5.491000	-0.006123
5.492000	-0.005137
5.493000	0.005385
5.494000	0.007687
5.495000	0.003083
5.496000	0.005714
5.497000	0.008344
5.498000	0.013934
5.499000	0.008015
5.500000	0.007358
5.501000	0.001768
5.502000	0.001768
5.503000	0.003741
5.504000	0.007687
5.505000	0.003741
5.506000	0.005385
5.507000	0.001768
5.508000	0.006371
5.509000	0.000453
5.510000	0.001110
5.511000	0.000782
5.512000	-0.010398
5.513000	-0.013029
5.514000	-0.012371
5.515000	-0.008425
5.516000	-0.000205
5.517000	-0.005795
5.518000	-0.004151
5.519000	-0.004151
5.520000	-0.005466
5.521000	0.005056
5.522000	0.004727
5.523000	0.003083
5.524000	0.007687
5.525000	0.004727
5.526000	0.007687
5.527000	0.004727
5.528000	0.008015
5.529000	0.007029
5.530000	0.006043
5.531000	-0.005137
5.532000	0.000124
5.533000	-0.013029
5.534000	-0.011713
5.535000	-0.009083
5.536000	-0.004479
5.537000	-0.001520
5.538000	0.006700
5.539000	0.001439
5.540000	0.010646
5.541000	-0.001849
5.542000	0.006371
5.543000	0.005714
5.544000	0.006700
5.545000	0.004727
5.546000	0.004070
5.547000	0.000782
5.548000	0.000124
5.549000	-0.000205
5.550000	-0.005137
5.551000	-0.004151
5.552000	-0.016974
5.553000	-0.009083
5.554000	-0.014673
5.555000	-0.008754
5.556000	-0.017303
5.557000	-0.011384
5.558000	-0.010398
5.559000	-0.008096
5.560000	-0.001520
5.561000	-0.001849
5.562000	-0.005795
5.563000	0.003083
5.564000	0.008344
5.565000	0.003412
5.566000	-0.003822
5.567000	-0.000534
5.568000	-0.008425
5.569000	-0.007768
5.570000	-0.009083
5.571000	-0.011384
5.572000	-0.006123
5.573000	0.000124
5.574000	-0.007768
5.575000	-0.003493
5.576000	-0.001849
5.577000	0.012948
5.578000	0.014920
5.579000	0.015907
5.580000	0.018537
5.581000	0.017551
5.582000	0.014263
5.583000	0.012948
5.584000	0.008673
5.585000	0.004398
5.586000	0.010646
5.587000	0.014920
5.588000	0.012948
5.589000	0.026429
5.590000	0.017222
5.591000	0.011632
5.592000	0.013605
5.593000	0.016564
5.594000	0.006371
5.595000	-0.001520
5.596000	-0.017961
5.597000	-0.007110
5.598000	0.004398
5.599000	0.007029
5.600000	0.004070
5.601000	-0.005137
5.602000	0.001439
5.603000	0.005385
5.604000	0.005056
5.605000	0.007687
5.606000	0.008344
5.607000	0.000782
5.608000	0.000124
5.609000	0.007029
5.610000	0.001768
5.611000	0.000782
5.612000	-0.014015
5.613000	-0.009412
5.614000	-0.015330
5.615000	-0.005466
5.616000	-0.005795
5.617000	-0.006781
5.618000	-0.001520
5.619000	0.010317
5.620000	0.009331
5.621000	0.016893
5.622000	0.009002
5.623000	-0.006123
5.624000	-0.010727
5.625000	-0.006781
5.626000	-0.004808
5.627000	0.005056
5.628000	0.006700
5.629000	0.001439
5.630000	0.007687
5.631000	0.017880
5.632000	0.019853
5.633000	0.009002
5.634000	-0.008096
5.635000	-0.007439
5.636000	-0.011384
5.637000	0.001110
5.638000	0.004398
5.639000	0.004727
5.640000	0.000124
5.641000	0.008015
5.642000	0.011303
5.643000	0.011961
5.644000	0.018209
5.645000	0.007029
5.646000	-0.001849
5.647000	0.002754
5.648000	0.002097
5.649000	0.003083
5.650000	0.003083
5.651000	-0.010069
5.652000	-0.013357
5.653000	-0.007439
5.654000	-0.006452
5.655000	-0.006781
5.656000	-0.006123
5.657000	-0.008096
5.658000	0.001768
5.659000	0.006371
5.660000	0.009002
5.661000	0.005714
5.662000	0.007029
5.663000	0.007029
5.664000	0.009331
5.665000	0.011632
5.666000	0.017551
5.667000	0.012619
5.668000	-0.000863
5.669000	0.000782
5.670000	-0.002835
5.671000	-0.002507
5.672000	-0.006123
5.673000	-0.006123
5.674000	-0.015659
5.675000	-0.015330
5.676000	-0.008096
5.677000	-0.004151
5.678000	-0.001849
5.679000	0.003412
5.680000	0.005056
5.681000	0.007687
5.682000	0.014263
5.683000	0.003083
5.684000	0.006700
5.685000	0.007687
5.686000	0.007358
5.687000	0.001439
5.688000	0.003412
5.689000	-0.001849
5.690000	-0.007439
5.691000	-0.017303
5.692000	-0.021249
5.693000	-0.027496
5.694000	-0.026510
5.695000	-0.012700
5.696000	-0.003493
5.697000	0.010317
5.698000	0.017880
5.699000	0.030703
5.700000	0.020510
5.701000	0.002754
5.702000	0.008015
5.703000	0.031361
5.704000	0.037280
5.705000	0.024127
5.706000	0.021825
5.707000	0.017222
5.708000	0.009988
5.709000	0.015578
5.710000	0.014592
5.711000	-0.001191
5.712000	-0.006123
5.713000	-0.003164
5.714000	-0.002507
5.715000	-0.012042
5.716000	-0.016974
5.717000	-0.014015
5.718000	-0.003822
5.719000	-0.002507
5.720000	-0.003822
5.721000	0.002754
5.722000	0.005714
5.723000	0.007687
5.724000	0.014920
5.725000	0.013605
5.726000	0.005056
5.727000	-0.002835
5.728000	-0.011384
5.729000	-0.009412
5.730000	0.004398
5.731000	0.011303
5.732000	0.002426
5.733000	-0.001520
5.734000	-0.015330
5.735000	-0.008425
5.736000	0.004727
5.737000	0.007687
5.738000	0.001439
5.739000	0.007358
5.740000	0.013276
5.741000	0.025114
5.742000	0.031032
5.743000	0.014592
5.744000	0.004398
5.745000	0.006700
5.746000	0.004070
5.747000	0.002097
5.748000	0.001110
5.749000	0.001439
5.750000	-0.001849
5.751000	-0.006781
5.752000	-0.008754
5.753000	-0.008425
5.754000	-0.006781
5.755000	-0.011056
5.756000	-0.012042
5.757000	0.000453
5.758000	0.000453
5.759000	0.013276
5.760000	0.007029
5.761000	0.004070
5.762000	-0.000863
5.763000	0.008015
5.764000	0.009002
5.765000	0.014592
5.766000	0.013276
5.767000	0.006700
5.768000	0.011303
5.769000	0.008673
5.770000	0.003083
5.771000	0.003741
5.772000	-0.003493
5.773000	-0.011713
5.774000	-0.013357
5.775000	-0.008425
5.776000	-0.008096
5.777000	-0.008096
5.778000	-0.008096
5.779000	-0.004151
5.780000	0.006371
5.781000	0.008673
5.782000	0.005714
5.783000	0.019524
5.784000	0.019524
5.785000	0.013934
5.786000	0.013934
5.787000	0.006371
5.788000	0.007358
5.789000	0.003412
5.790000	-0.002178
5.791000	-0.002835
5.792000	-0.001520
5.793000	0.000453
5.794000	-0.009412
5.795000	-0.015988
5.796000	-0.010069
5.797000	0.000124
5.798000	0.011961
5.799000	0.006371
5.800000	-0.011056
5.801000	-0.003164
5.802000	0.007358
5.803000	0.007687
5.804000	0.006371
5.805000	0.008344
5.806000	0.003083
5.807000	0.014592
5.808000	0.020839
5.809000	0.022483
5.810000	0.011961
5.811000	0.012619
5.812000	0.002097
5.813000	-0.001191
5.814000	-0.000205
5.815000	-0.003493
5.816000	-0.002507
5.817000	-0.011384
5.818000	-0.002835
5.819000	-0.000863
5.820000	0.009988
5.821000	0.010317
5.822000	0.008015
5.823000	-0.002507
5.824000	0.010646
5.825000	-0.010727
5.826000	-0.025195
5.827000	-0.012042
5.828000	-0.006123
5.829000	-0.005137
5.830000	-0.008754
5.831000	-0.004808
5.832000	-0.002507
5.833000	-0.001849
5.834000	-0.007439
5.835000	-0.010069
5.836000	-0.027496
5.837000	-0.040977
5.838000	-0.016317
5.839000	0.013276
5.840000	0.035307
5.841000	0.038924
5.842000	0.048130
5.843000	0.045500
5.844000	0.033005
5.845000	0.006043
5.846000	0.003741
5.847000	-0.009083
5.848000	-0.016974
5.849000	-0.022564
5.850000	-0.015659
5.851000	-0.008754
5.852000	0.001768
5.853000	0.000453
5.854000	0.003083
5.855000	0.005714
5.856000	0.004398
5.857000	0.008015
5.858000	0.003412
5.859000	0.001768
5.860000	-0.006452
5.861000	-0.011713
5.862000	-0.005137
5.863000	-0.004151
5.864000	-0.001191
5.865000	-0.001849
5.866000	-0.001520
5.867000	0.003412
5.868000	-0.000534
5.869000	0.001768
5.870000	0.001768
5.871000	-0.010727
5.872000	-0.006452
5.873000	-0.006123
5.874000	-0.008425
5.875000	-0.008754
5.876000	-0.008425
5.877000	-0.002178
5.878000	-0.002178
5.879000	0.005056
5.880000	0.011632
5.881000	0.006043
5.882000	0.012948
5.883000	0.007029
5.884000	0.004398
5.885000	0.012619
5.886000	0.005714
5.887000	-0.001520
5.888000	-0.005137
5.889000	-0.002835
5.890000	-0.001849
5.891000	0.002097
5.892000	-0.009412
5.893000	-0.015988
5.894000	-0.010398
5.895000	-0.005795
5.896000	-0.002178
5.897000	0.000453
5.898000	-0.001191
5.899000	-0.002178
5.900000	0.001110
5.901000	0.001768
5.902000	0.010317
5.903000	0.005056
5.904000	0.001110
5.905000	-0.001520
5.906000	0.002754
5.907000	0.002097
5.908000	-0.007110
5.909000	-0.006781
5.910000	-0.004808
5.911000	-0.016645
5.912000	-0.009412
5.913000	-0.000205
5.914000	-0.007110
5.915000	-0.011384
5.916000	-0.016645
5.917000	-0.013029
5.918000	-0.009083
5.919000	-0.013357
5.920000	-0.006452
5.921000	0.000782
5.922000	0.012948
5.923000	0.025114
5.924000	0.028402
5.925000	0.020510
5.926000	0.019195
5.927000	0.017222
5.928000	0.013276
5.929000	0.001439
5.930000	-0.007768
5.931000	-0.012042
5.932000	-0.024537
5.933000	-0.039991
5.934000	-0.030456
5.935000	-0.018618
5.936000	-0.009740
5.937000	0.008673
5.938000	0.009002
5.939000	0.031032
5.940000	0.034978
5.941000	0.031361
5.942000	0.017551
5.943000	-0.001191
5.944000	-0.012700
5.945000	-0.013686
5.946000	-0.008425
5.947000	-0.002835
5.948000	-0.001849
5.949000	0.002097
5.950000	-0.003164
5.951000	0.011632
5.952000	0.005385
5.953000	-0.000534
5.954000	-0.006452
5.955000	-0.011056
5.956000	-0.009740
5.957000	-0.011056
5.958000	-0.003493
5.959000	-0.002178
5.960000	0.000782
5.961000	0.006043
5.962000	0.005385
5.963000	0.013934
5.964000	0.003741
5.965000	-0.000863
5.966000	-0.003822
5.967000	-0.001191
5.968000	-0.009740
5.969000	0.000782
5.970000	0.002426
5.971000	0.000124
5.972000	-0.006781
5.973000	0.009002
5.974000	0.000453
5.975000	-0.000205
5.976000	-0.008096
5.977000	0.003083
5.978000	0.013605
5.979000	0.003412
5.980000	-0.002507
5.981000	-0.001520
5.982000	-0.001191
5.983000	0.012948
5.984000	0.009002
5.985000	0.010646
5.986000	0.004398
5.987000	0.000782
5.988000	-0.002178
5.989000	0.006043
5.990000	0.006043
5.991000	-0.003164
5.992000	-0.006452
5.993000	-0.006452
5.994000	-0.008754
5.995000	-0.010727
5.996000	-0.007110
5.997000	-0.007768
5.998000	-0.013686
5.999000	-0.007439
6.000000	0.002426
6.001000	0.010975
6.002000	0.013605
6.003000	0.010317
6.004000	0.014263
6.005000	0.010646
6.006000	0.019524
6.007000	0.011632
6.008000	-0.000534
6.009000	-0.005466
6.010000	-0.009412
6.011000	-0.013686
6.012000	-0.019934
6.013000	-0.032100
6.014000	-0.030784
6.015000	-0.025852
6.016000	-0.011384
6.017000	0.001439
6.018000	0.010646
6.019000	0.027086
6.020000	0.042212
6.021000	0.018209
6.022000	0.019853
6.023000	0.013276
6.024000	0.014263
6.025000	0.001439
6.026000	-0.003822
6.027000	0.001768
6.028000	0.014920
6.029000	0.014592
6.030000	0.017222
6.031000	-0.003822
6.032000	-0.037032
6.033000	-0.001520
6.034000	0.015907
6.035000	0.015249
6.036000	0.013276
6.037000	0.013934
6.038000	0.002426
6.039000	-0.001191
6.040000	-0.004479
6.041000	0.009002
6.042000	0.014920
6.043000	0.010646
6.044000	0.016236
6.045000	0.019195
6.046000	0.000782
6.047000	-0.002178
6.048000	-0.005137
6.049000	-0.019276
6.050000	-0.033415
6.051000	-0.036374
6.052000	-0.038676
6.053000	-0.025852
6.054000	-0.006123
6.055000	0.000124
6.056000	0.006371
6.057000	0.012948
6.058000	0.027415
6.059000	0.024785
6.060000	0.020181
6.061000	0.014592
6.062000	0.009331
6.063000	0.007029
6.064000	0.000453
6.065000	-0.002507
6.066000	0.002097
6.067000	0.005056
6.068000	0.004727
6.069000	-0.001849
6.070000	-0.012042
6.071000	-0.008096
6.072000	0.007358
6.073000	-0.003822
6.074000	-0.023222
6.075000	-0.035059
6.076000	-0.022564
6.077000	-0.012042
6.078000	-0.006452
6.079000	-0.009083
6.080000	-0.002835
6.081000	0.006043
6.082000	0.023798
6.083000	0.024785
6.084000	0.029388
6.085000	0.018866
6.086000	0.022812
6.087000	0.009331
6.088000	-0.000205
6.089000	-0.008425
6.090000	-0.007110
6.091000	-0.018618
6.092000	-0.014344
6.093000	-0.009740
6.094000	-0.016974
6.095000	-0.007768
6.096000	-0.012042
6.097000	-0.008096
6.098000	-0.000534
6.099000	0.005714
6.100000	0.008344
6.101000	-0.000863
6.102000	-0.000863
6.103000	0.002426
6.104000	-0.011384
6.105000	-0.005795
6.106000	0.002754
6.107000	0.011632
6.108000	0.002754
6.109000	0.007029
6.110000	0.009659
6.111000	0.008673
6.112000	-0.001849
6.113000	-0.011384
6.114000	-0.022564
6.115000	-0.016317
6.116000	-0.007768
6.117000	0.003741
6.118000	0.010975
6.119000	0.009988
6.120000	0.011303
6.121000	0.018866
6.122000	0.020510
6.123000	-0.000863
6.124000	-0.018947
6.125000	-0.015988
6.126000	-0.011056
6.127000	-0.003164
6.128000	-0.006781
6.129000	-0.006123
6.130000	0.005056
6.131000	0.000453
6.132000	0.004727
6.133000	0.010646
6.134000	-0.006452
6.135000	-0.019276
6.136000	-0.010398
